X [s]	1 Gast Med [V]	2 T Ant [V]	3 R Fem [V]	4 B Fem [V]	
21.870000	3.171885e-06	8.501958e-05	4.715068e-06	7.015589e-06	
21.871001	3.238142e-06	8.592947e-05	4.739530e-06	6.569967e-06	
21.872002	3.305887e-06	8.679935e-05	4.767288e-06	6.146888e-06	
21.873003	3.375046e-06	8.762725e-05	4.798424e-06	5.747196e-06	
21.874003	3.445547e-06	8.841117e-05	4.833022e-06	5.371737e-06	
21.875004	3.517315e-06	8.914919e-05	4.871161e-06	5.021323e-06	
21.876005	3.590283e-06	8.984070e-05	4.912843e-06	4.696036e-06	
21.877006	3.664387e-06	9.048641e-05	4.957991e-06	4.395226e-06	
21.878007	3.739564e-06	9.108711e-05	5.006524e-06	4.118210e-06	
21.879008	3.815751e-06	9.164355e-05	5.058364e-06	3.864305e-06	
21.880009	3.892886e-06	9.215651e-05	5.113430e-06	3.632830e-06	
21.881009	3.970904e-06	9.262677e-05	5.171641e-06	3.423101e-06	
21.882010	4.049744e-06	9.305510e-05	5.232919e-06	3.234436e-06	
21.883011	4.129341e-06	9.344226e-05	5.297183e-06	3.066153e-06	
21.884012	4.209633e-06	9.378904e-05	5.364353e-06	2.917570e-06	
21.885013	4.290558e-06	9.409620e-05	5.434348e-06	2.788003e-06	
21.886014	4.372051e-06	9.436452e-05	5.507090e-06	2.676770e-06	
21.887015	4.454049e-06	9.459476e-05	5.582498e-06	2.583189e-06	
21.888016	4.536491e-06	9.478770e-05	5.660492e-06	2.506577e-06	
21.889016	4.619312e-06	9.494412e-05	5.740992e-06	2.446252e-06	
21.890017	4.702450e-06	9.506478e-05	5.823918e-06	2.401531e-06	
21.891018	4.785842e-06	9.515046e-05	5.909190e-06	2.371732e-06	
21.892019	4.869424e-06	9.520193e-05	5.996728e-06	2.356173e-06	
21.893020	4.953133e-06	9.521996e-05	6.086453e-06	2.354170e-06	
21.894021	5.036908e-06	9.520533e-05	6.178283e-06	2.365041e-06	
21.895022	5.120683e-06	9.515880e-05	6.272139e-06	2.388105e-06	
21.896022	5.204397e-06	9.508115e-05	6.367941e-06	2.422678e-06	
21.897023	5.287987e-06	9.497315e-05	6.465610e-06	2.468077e-06	
21.898024	5.371389e-06	9.483558e-05	6.565064e-06	2.523621e-06	
21.899025	5.454540e-06	9.466920e-05	6.666225e-06	2.588627e-06	
21.900026	5.537377e-06	9.447478e-05	6.769012e-06	2.662412e-06	
21.901027	5.619838e-06	9.425311e-05	6.873344e-06	2.744295e-06	
21.902028	5.701858e-06	9.400495e-05	6.979143e-06	2.833591e-06	
21.903028	5.783376e-06	9.373108e-05	7.086328e-06	2.929620e-06	
21.904029	5.864328e-06	9.343226e-05	7.194819e-06	3.031698e-06	
21.905030	5.944651e-06	9.310928e-05	7.304536e-06	3.139143e-06	
21.906031	6.024283e-06	9.276289e-05	7.415399e-06	3.251273e-06	
21.907032	6.103159e-06	9.239388e-05	7.527328e-06	3.367405e-06	
21.908033	6.181217e-06	9.200301e-05	7.640243e-06	3.486856e-06	
21.909034	6.258393e-06	9.159107e-05	7.754065e-06	3.608944e-06	
21.910035	6.334626e-06	9.115881e-05	7.868712e-06	3.732987e-06	
21.911035	6.409852e-06	9.070702e-05	7.984106e-06	3.858301e-06	
21.912036	6.484007e-06	9.023646e-05	8.100165e-06	3.984206e-06	
21.913037	6.557029e-06	8.974791e-05	8.216811e-06	4.110017e-06	
21.914038	6.628855e-06	8.924214e-05	8.333963e-06	4.235053e-06	
21.915039	6.699421e-06	8.871992e-05	8.451541e-06	4.358632e-06	
21.916040	6.768665e-06	8.818203e-05	8.569465e-06	4.480069e-06	
21.917041	6.836524e-06	8.762924e-05	8.687655e-06	4.598684e-06	
21.918041	6.902934e-06	8.706231e-05	8.806032e-06	4.713794e-06	
21.919042	6.967832e-06	8.648203e-05	8.924514e-06	4.824716e-06	
21.920043	7.031156e-06	8.588916e-05	9.043023e-06	4.930767e-06	
21.921044	7.092843e-06	8.528447e-05	9.161477e-06	5.031266e-06	
21.922045	7.152828e-06	8.466874e-05	9.279798e-06	5.125529e-06	
21.923046	7.211051e-06	8.404275e-05	9.397905e-06	5.212875e-06	
21.924047	7.267446e-06	8.340726e-05	9.515718e-06	5.292621e-06	
21.925047	7.321954e-06	8.276304e-05	9.633156e-06	5.364109e-06	
21.926048	7.374559e-06	8.211093e-05	9.750104e-06	5.427182e-06	
21.927049	7.425287e-06	8.145179e-05	9.866423e-06	5.482125e-06	
21.928050	7.474163e-06	8.078649e-05	9.981968e-06	5.529239e-06	
21.929051	7.521216e-06	8.011591e-05	1.009660e-05	5.568825e-06	
21.930052	7.566470e-06	7.944092e-05	1.021017e-05	5.601186e-06	
21.931053	7.609954e-06	7.876238e-05	1.032254e-05	5.626622e-06	
21.932053	7.651693e-06	7.808116e-05	1.043356e-05	5.645436e-06	
21.933054	7.691714e-06	7.739815e-05	1.054310e-05	5.657928e-06	
21.934055	7.730044e-06	7.671420e-05	1.065101e-05	5.664400e-06	
21.935056	7.766710e-06	7.603020e-05	1.075715e-05	5.665154e-06	
21.936057	7.801737e-06	7.534701e-05	1.086138e-05	5.660491e-06	
21.937058	7.835153e-06	7.466550e-05	1.096354e-05	5.650712e-06	
21.938059	7.866984e-06	7.398655e-05	1.106351e-05	5.636119e-06	
21.939060	7.897257e-06	7.331102e-05	1.116114e-05	5.617014e-06	
21.940060	7.925999e-06	7.263979e-05	1.125628e-05	5.593697e-06	
21.941061	7.953235e-06	7.197372e-05	1.134879e-05	5.566471e-06	
21.942062	7.978994e-06	7.131369e-05	1.143853e-05	5.535637e-06	
21.943063	8.003300e-06	7.066057e-05	1.152536e-05	5.501496e-06	
21.944064	8.026182e-06	7.001524e-05	1.160914e-05	5.464350e-06	
21.945065	8.047665e-06	6.937855e-05	1.168971e-05	5.424500e-06	
21.946066	8.067776e-06	6.875139e-05	1.176695e-05	5.382248e-06	
21.947066	8.086542e-06	6.813462e-05	1.184070e-05	5.337895e-06	
21.948067	8.103990e-06	6.752911e-05	1.191083e-05	5.291743e-06	
21.949068	8.120145e-06	6.693574e-05	1.197718e-05	5.244093e-06	
21.950069	8.135035e-06	6.635538e-05	1.203963e-05	5.195246e-06	
21.951070	8.148687e-06	6.578890e-05	1.209802e-05	5.145505e-06	
21.952071	8.161126e-06	6.523716e-05	1.215221e-05	5.095170e-06	
21.953072	8.172380e-06	6.470105e-05	1.220207e-05	5.044543e-06	
21.954072	8.182475e-06	6.418142e-05	1.224744e-05	4.993926e-06	
21.955073	8.191438e-06	6.367916e-05	1.228819e-05	4.943619e-06	
21.956074	8.199295e-06	6.319514e-05	1.232417e-05	4.893925e-06	
21.957075	8.206073e-06	6.273021e-05	1.235524e-05	4.845145e-06	
21.958076	8.211798e-06	6.228526e-05	1.238126e-05	4.797580e-06	
21.959077	8.216498e-06	6.186116e-05	1.240208e-05	4.751533e-06	
21.960078	8.220198e-06	6.145878e-05	1.241757e-05	4.707303e-06	
21.961079	8.222926e-06	6.107898e-05	1.242757e-05	4.665193e-06	
21.962079	8.224709e-06	6.072265e-05	1.243195e-05	4.625505e-06	
21.963080	8.225571e-06	6.039064e-05	1.243057e-05	4.588539e-06	
21.964081	8.225541e-06	6.008384e-05	1.242328e-05	4.554597e-06	
21.965082	8.224645e-06	5.980311e-05	1.240993e-05	4.523982e-06	
21.966083	8.222910e-06	5.954933e-05	1.239039e-05	4.496993e-06	
21.967084	8.220362e-06	5.932336e-05	1.236452e-05	4.473933e-06	
21.968085	8.217027e-06	5.912607e-05	1.233216e-05	4.455103e-06	
21.969085	8.212933e-06	5.895835e-05	1.229319e-05	4.440804e-06	
21.970086	8.208106e-06	5.882105e-05	1.224745e-05	4.431339e-06	
21.971087	8.202572e-06	5.871505e-05	1.219480e-05	4.427008e-06	
21.972088	8.196359e-06	5.864122e-05	1.213510e-05	4.428113e-06	
21.973089	8.189493e-06	5.860044e-05	1.206821e-05	4.434955e-06	
21.974090	8.182000e-06	5.859356e-05	1.199399e-05	4.447837e-06	
21.975091	8.173908e-06	5.862140e-05	1.191230e-05	4.467040e-06	
21.976091	8.165270e-06	5.868354e-05	1.182331e-05	4.492556e-06	
21.977092	8.156155e-06	5.877863e-05	1.172736e-05	4.524139e-06	
21.978093	8.146635e-06	5.890528e-05	1.162484e-05	4.561541e-06	
21.979094	8.136780e-06	5.906210e-05	1.151611e-05	4.604511e-06	
21.980095	8.126662e-06	5.924771e-05	1.140155e-05	4.652797e-06	
21.981096	8.116350e-06	5.946072e-05	1.128152e-05	4.706150e-06	
21.982097	8.105917e-06	5.969974e-05	1.115641e-05	4.764319e-06	
21.983097	8.095432e-06	5.996339e-05	1.102658e-05	4.827053e-06	
21.984098	8.084968e-06	6.025029e-05	1.089240e-05	4.894103e-06	
21.985099	8.074594e-06	6.055903e-05	1.075424e-05	4.965218e-06	
21.986100	8.064382e-06	6.088825e-05	1.061248e-05	5.040147e-06	
21.987101	8.054403e-06	6.123655e-05	1.046749e-05	5.118640e-06	
21.988102	8.044727e-06	6.160254e-05	1.031964e-05	5.200447e-06	
21.989103	8.035425e-06	6.198484e-05	1.016930e-05	5.285316e-06	
21.990104	8.026569e-06	6.238206e-05	1.001684e-05	5.372999e-06	
21.991104	8.018229e-06	6.279282e-05	9.862627e-06	5.463243e-06	
21.992105	8.010476e-06	6.321572e-05	9.707044e-06	5.555799e-06	
21.993106	8.003382e-06	6.364939e-05	9.550457e-06	5.650416e-06	
21.994107	7.997016e-06	6.409243e-05	9.393238e-06	5.746844e-06	
21.995108	7.991450e-06	6.454347e-05	9.235759e-06	5.844833e-06	
21.996109	7.986754e-06	6.500110e-05	9.078390e-06	5.944131e-06	
21.997110	7.983001e-06	6.546395e-05	8.921504e-06	6.044489e-06	
21.998110	7.980260e-06	6.593064e-05	8.765472e-06	6.145656e-06	
21.999111	7.978602e-06	6.639976e-05	8.610665e-06	6.247382e-06	
22.000112	7.978099e-06	6.686994e-05	8.457455e-06	6.349416e-06	
22.001113	7.978821e-06	6.733979e-05	8.306214e-06	6.451507e-06	
22.002114	7.980839e-06	6.780792e-05	8.157312e-06	6.553406e-06	
22.003115	7.984224e-06	6.827295e-05	8.011122e-06	6.654862e-06	
22.004116	7.989048e-06	6.873349e-05	7.868015e-06	6.755624e-06	
22.005116	7.995380e-06	6.918816e-05	7.728363e-06	6.855442e-06	
22.006117	8.003292e-06	6.963556e-05	7.592537e-06	6.954066e-06	
22.007118	8.012855e-06	7.007431e-05	7.460908e-06	7.051244e-06	
22.008119	8.024139e-06	7.050303e-05	7.333848e-06	7.146728e-06	
22.009120	8.037216e-06	7.092032e-05	7.211729e-06	7.240265e-06	
22.010121	8.052156e-06	7.132481e-05	7.094922e-06	7.331606e-06	
22.011122	8.069031e-06	7.171510e-05	6.983798e-06	7.420501e-06	
22.012123	8.087911e-06	7.208980e-05	6.878730e-06	7.506698e-06	
22.013123	8.108867e-06	7.244754e-05	6.780088e-06	7.589948e-06	
22.014124	8.131970e-06	7.278693e-05	6.688245e-06	7.670000e-06	
22.015125	8.157291e-06	7.310657e-05	6.603571e-06	7.746603e-06	
22.016126	8.184901e-06	7.340508e-05	6.526438e-06	7.819508e-06	
22.017127	8.214871e-06	7.368108e-05	6.457218e-06	7.888463e-06	
22.018128	8.247271e-06	7.393318e-05	6.396283e-06	7.953218e-06	
22.019129	8.282173e-06	7.415999e-05	6.344003e-06	8.013523e-06	
22.020129	8.319647e-06	7.436012e-05	6.300750e-06	8.069128e-06	
22.021130	8.359765e-06	7.453220e-05	6.266896e-06	8.119781e-06	
22.022131	8.402597e-06	7.467483e-05	6.242812e-06	8.165233e-06	
22.023132	8.448215e-06	7.478662e-05	6.228870e-06	8.205233e-06	
22.024133	8.496688e-06	7.486619e-05	6.225442e-06	8.239530e-06	
22.025134	8.548078e-06	7.491226e-05	6.232864e-06	8.267887e-06	
22.026135	8.602309e-06	7.492483e-05	6.251024e-06	8.290244e-06	
22.027135	8.659204e-06	7.490489e-05	6.279487e-06	8.306666e-06	
22.028136	8.718589e-06	7.485341e-05	6.317808e-06	8.317220e-06	
22.029137	8.780285e-06	7.477136e-05	6.365546e-06	8.321974e-06	
22.030138	8.844116e-06	7.465974e-05	6.422258e-06	8.320996e-06	
22.031139	8.909905e-06	7.451953e-05	6.487501e-06	8.314354e-06	
22.032140	8.977476e-06	7.435170e-05	6.560832e-06	8.302115e-06	
22.033141	9.046652e-06	7.415725e-05	6.641810e-06	8.284348e-06	
22.034142	9.117255e-06	7.393714e-05	6.729990e-06	8.261121e-06	
22.035142	9.189109e-06	7.369237e-05	6.824931e-06	8.232500e-06	
22.036143	9.262037e-06	7.342392e-05	6.926190e-06	8.198555e-06	
22.037144	9.335863e-06	7.313276e-05	7.033323e-06	8.159352e-06	
22.038145	9.410409e-06	7.281989e-05	7.145889e-06	8.114960e-06	
22.039146	9.485499e-06	7.248628e-05	7.263445e-06	8.065446e-06	
22.040147	9.560956e-06	7.213291e-05	7.385547e-06	8.010879e-06	
22.041148	9.636603e-06	7.176077e-05	7.511754e-06	7.951326e-06	
22.042148	9.712263e-06	7.137084e-05	7.641622e-06	7.886855e-06	
22.043149	9.787760e-06	7.096410e-05	7.774710e-06	7.817533e-06	
22.044150	9.862917e-06	7.054154e-05	7.910573e-06	7.743429e-06	
22.045151	9.937556e-06	7.010413e-05	8.048770e-06	7.664611e-06	
22.046152	1.001150e-05	6.965285e-05	8.188858e-06	7.581145e-06	
22.047153	1.008458e-05	6.918870e-05	8.330394e-06	7.493101e-06	
22.048154	1.015660e-05	6.871265e-05	8.472935e-06	7.400546e-06	
22.049154	1.022741e-05	6.822568e-05	8.616039e-06	7.303548e-06	
22.050155	1.029681e-05	6.772878e-05	8.759263e-06	7.202174e-06	
22.051156	1.036463e-05	6.722293e-05	8.902165e-06	7.096492e-06	
22.052157	1.043070e-05	6.670911e-05	9.044301e-06	6.986571e-06	
22.053158	1.049484e-05	6.618830e-05	9.185229e-06	6.872478e-06	
22.054159	1.055687e-05	6.566148e-05	9.324506e-06	6.754280e-06	
22.055160	1.061661e-05	6.512964e-05	9.461690e-06	6.632047e-06	
22.056160	1.067389e-05	6.459376e-05	9.596338e-06	6.505844e-06	
22.057161	1.072854e-05	6.405483e-05	9.728007e-06	6.375742e-06	
22.058162	1.078037e-05	6.351381e-05	9.856254e-06	6.241806e-06	
22.059163	1.082920e-05	6.297170e-05	9.980638e-06	6.104105e-06	
22.060164	1.087487e-05	6.242948e-05	1.010071e-05	5.962708e-06	
22.061165	1.091719e-05	6.188813e-05	1.021604e-05	5.817681e-06	
22.062166	1.095598e-05	6.134863e-05	1.032618e-05	5.669092e-06	
22.063167	1.099108e-05	6.081196e-05	1.043068e-05	5.517010e-06	
22.064167	1.102230e-05	6.027911e-05	1.052910e-05	5.361502e-06	
22.065168	1.104947e-05	5.975106e-05	1.062100e-05	5.202636e-06	
22.066169	1.107241e-05	5.922879e-05	1.070594e-05	5.040480e-06	
22.067170	1.109094e-05	5.871328e-05	1.078347e-05	4.875101e-06	
22.068171	1.110489e-05	5.820551e-05	1.085316e-05	4.706568e-06	
22.069172	1.111407e-05	5.770647e-05	1.091455e-05	4.534948e-06	
22.070173	1.111832e-05	5.721714e-05	1.096721e-05	4.360310e-06	
22.071173	1.111746e-05	5.673850e-05	1.101069e-05	4.182720e-06	
22.072174	1.111130e-05	5.627154e-05	1.104456e-05	4.002247e-06	
22.073175	1.109968e-05	5.581723e-05	1.106836e-05	3.818958e-06	
22.074176	1.108241e-05	5.537655e-05	1.108166e-05	3.632923e-06	
22.075177	1.105934e-05	5.495043e-05	1.108405e-05	3.444235e-06	
22.076178	1.103056e-05	5.453902e-05	1.107559e-05	3.253315e-06	
22.077179	1.099628e-05	5.414199e-05	1.105664e-05	3.060788e-06	
22.078179	1.095674e-05	5.375900e-05	1.102756e-05	2.867281e-06	
22.079180	1.091218e-05	5.338973e-05	1.098870e-05	2.673422e-06	
22.080181	1.086282e-05	5.303382e-05	1.094043e-05	2.479839e-06	
22.081182	1.080891e-05	5.269096e-05	1.088309e-05	2.287160e-06	
22.082183	1.075067e-05	5.236079e-05	1.081706e-05	2.096014e-06	
22.083184	1.068833e-05	5.204299e-05	1.074269e-05	1.907027e-06	
22.084185	1.062214e-05	5.173722e-05	1.066033e-05	1.720829e-06	
22.085186	1.055231e-05	5.144314e-05	1.057035e-05	1.538047e-06	
22.086186	1.047909e-05	5.116043e-05	1.047311e-05	1.359309e-06	
22.087187	1.040271e-05	5.088873e-05	1.036896e-05	1.185243e-06	
22.088188	1.032340e-05	5.062772e-05	1.025826e-05	1.016477e-06	
22.089189	1.024139e-05	5.037706e-05	1.014138e-05	8.536389e-07	
22.090190	1.015691e-05	5.013642e-05	1.001867e-05	6.973569e-07	
22.091191	1.007020e-05	4.990545e-05	9.890483e-06	5.482589e-07	
22.092192	9.981493e-06	4.968383e-05	9.757187e-06	4.069728e-07	
22.093192	9.891019e-06	4.947122e-05	9.619138e-06	2.741267e-07	
22.094193	9.799010e-06	4.926727e-05	9.476694e-06	1.503485e-07	
22.095194	9.705700e-06	4.907167e-05	9.330215e-06	3.626616e-08	
22.096195	9.611321e-06	4.888406e-05	9.180058e-06	-6.749230e-08	
22.097196	9.516107e-06	4.870411e-05	9.026583e-06	-1.602989e-07	
22.098197	9.420289e-06	4.853150e-05	8.870149e-06	-2.415257e-07	
22.099198	9.324101e-06	4.836587e-05	8.711113e-06	-3.105447e-07	
22.100198	9.227775e-06	4.820691e-05	8.549835e-06	-3.667279e-07	
22.101199	9.131544e-06	4.805426e-05	8.386674e-06	-4.094473e-07	
22.102200	9.035641e-06	4.790760e-05	8.221989e-06	-4.380750e-07	
22.103201	8.940299e-06	4.776658e-05	8.056137e-06	-4.519830e-07	
22.104202	8.845749e-06	4.763088e-05	7.889478e-06	-4.505432e-07	
22.105203	8.752226e-06	4.750016e-05	7.722370e-06	-4.331278e-07	
22.106204	8.659961e-06	4.737408e-05	7.555173e-06	-3.991087e-07	
22.107204	8.569188e-06	4.725230e-05	7.388245e-06	-3.478580e-07	
22.108205	8.480139e-06	4.713450e-05	7.221944e-06	-2.787477e-07	
22.109206	8.393046e-06	4.702032e-05	7.056630e-06	-1.911497e-07	
22.110207	8.308144e-06	4.690945e-05	6.892661e-06	-8.443620e-08	
22.111208	8.225663e-06	4.680154e-05	6.730396e-06	4.202088e-08	
22.112209	8.145837e-06	4.669625e-05	6.570194e-06	1.888495e-07	
22.113210	8.068900e-06	4.659325e-05	6.412413e-06	3.566776e-07	
22.114211	7.995082e-06	4.649221e-05	6.257412e-06	5.461332e-07	
22.115211	7.924618e-06	4.639279e-05	6.105549e-06	7.578443e-07	
22.116212	7.857740e-06	4.629465e-05	5.957185e-06	9.924389e-07	
22.117213	7.794680e-06	4.619746e-05	5.812676e-06	1.250545e-06	
22.118214	7.735672e-06	4.610088e-05	5.672383e-06	1.532790e-06	
22.119215	7.680948e-06	4.600458e-05	5.536663e-06	1.839803e-06	
22.120216	7.630740e-06	4.590821e-05	5.405876e-06	2.172211e-06	
22.121217	7.585283e-06	4.581145e-05	5.280380e-06	2.530643e-06	
22.122217	7.544807e-06	4.571396e-05	5.160534e-06	2.915726e-06	
22.123218	7.509546e-06	4.561539e-05	5.046697e-06	3.328088e-06	
22.124219	7.479734e-06	4.551543e-05	4.939227e-06	3.768357e-06	
22.125220	7.455577e-06	4.541378e-05	4.838449e-06	4.237039e-06	
22.126221	7.437045e-06	4.531072e-05	4.744358e-06	4.733434e-06	
22.127222	7.423972e-06	4.520683e-05	4.656759e-06	5.256159e-06	
22.128223	7.416190e-06	4.510269e-05	4.575456e-06	5.803823e-06	
22.129223	7.413531e-06	4.499890e-05	4.500252e-06	6.375036e-06	
22.130224	7.415827e-06	4.489604e-05	4.430953e-06	6.968408e-06	
22.131225	7.422910e-06	4.479468e-05	4.367360e-06	7.582548e-06	
22.132226	7.434612e-06	4.469544e-05	4.309280e-06	8.216065e-06	
22.133227	7.450765e-06	4.459887e-05	4.256515e-06	8.867570e-06	
22.134228	7.471201e-06	4.450558e-05	4.208868e-06	9.535670e-06	
22.135229	7.495751e-06	4.441615e-05	4.166145e-06	1.021898e-05	
22.136230	7.524249e-06	4.433117e-05	4.128149e-06	1.091610e-05	
22.137230	7.556526e-06	4.425122e-05	4.094683e-06	1.162564e-05	
22.138231	7.592415e-06	4.417688e-05	4.065553e-06	1.234623e-05	
22.139232	7.631746e-06	4.410875e-05	4.040560e-06	1.307645e-05	
22.140233	7.674353e-06	4.404741e-05	4.019510e-06	1.381493e-05	
22.141234	7.720067e-06	4.399345e-05	4.002206e-06	1.456027e-05	
22.142235	7.768720e-06	4.394745e-05	3.988452e-06	1.531108e-05	
22.143236	7.820144e-06	4.390999e-05	3.978052e-06	1.606597e-05	
22.144236	7.874172e-06	4.388168e-05	3.970809e-06	1.682356e-05	
22.145237	7.930635e-06	4.386308e-05	3.966528e-06	1.758245e-05	
22.146238	7.989366e-06	4.385479e-05	3.965013e-06	1.834124e-05	
22.147239	8.050196e-06	4.385740e-05	3.966067e-06	1.909856e-05	
22.148240	8.112958e-06	4.387148e-05	3.969494e-06	1.985300e-05	
22.149241	8.177483e-06	4.389764e-05	3.975098e-06	2.060318e-05	
22.150242	8.243603e-06	4.393644e-05	3.982683e-06	2.134771e-05	
22.151242	8.311151e-06	4.398848e-05	3.992053e-06	2.208520e-05	
22.152243	8.379959e-06	4.405435e-05	4.003011e-06	2.281426e-05	
22.153244	8.449858e-06	4.413463e-05	4.015362e-06	2.353349e-05	
22.154245	8.520681e-06	4.422990e-05	4.028909e-06	2.424150e-05	
22.155246	8.592260e-06	4.434076e-05	4.043457e-06	2.493691e-05	
22.156247	8.664426e-06	4.446779e-05	4.058808e-06	2.561833e-05	
22.157248	8.737012e-06	4.461157e-05	4.074767e-06	2.628436e-05	
22.158248	8.809850e-06	4.477270e-05	4.091138e-06	2.693362e-05	
22.159249	8.882771e-06	4.495175e-05	4.107724e-06	2.756470e-05	
22.160250	8.955609e-06	4.514932e-05	4.124330e-06	2.817623e-05	
22.161251	9.028194e-06	4.536598e-05	4.140760e-06	2.876681e-05	
22.162252	9.100359e-06	4.560234e-05	4.156816e-06	2.933506e-05	
22.163253	9.171936e-06	4.585896e-05	4.172304e-06	2.987957e-05	
22.164254	9.242757e-06	4.613645e-05	4.187026e-06	3.039897e-05	
22.165255	9.312655e-06	4.643538e-05	4.200787e-06	3.089185e-05	
22.166255	9.381460e-06	4.675634e-05	4.213391e-06	3.135684e-05	
22.167256	9.449005e-06	4.709992e-05	4.224641e-06	3.179253e-05	
22.168257	9.515122e-06	4.746671e-05	4.234341e-06	3.219754e-05	
22.169258	9.579643e-06	4.785728e-05	4.242296e-06	3.257048e-05	
22.170259	9.642401e-06	4.827223e-05	4.248309e-06	3.290995e-05	
22.171260	9.703226e-06	4.871214e-05	4.252183e-06	3.321458e-05	
22.172261	9.761952e-06	4.917761e-05	4.253724e-06	3.348296e-05	
22.173261	9.818410e-06	4.966920e-05	4.252734e-06	3.371370e-05	
22.174262	9.872432e-06	5.018752e-05	4.249017e-06	3.390542e-05	
22.175263	9.923868e-06	5.073300e-05	4.242402e-06	3.405692e-05	
22.176264	9.972716e-06	5.130486e-05	4.232923e-06	3.416861e-05	
22.177265	1.001905e-05	5.190172e-05	4.220717e-06	3.424175e-05	
22.178266	1.006293e-05	5.252216e-05	4.205925e-06	3.427758e-05	
22.179267	1.010445e-05	5.316480e-05	4.188683e-06	3.427734e-05	
22.180267	1.014366e-05	5.382823e-05	4.169132e-06	3.424230e-05	
22.181268	1.018065e-05	5.451105e-05	4.147410e-06	3.417369e-05	
22.182269	1.021549e-05	5.521187e-05	4.123656e-06	3.407276e-05	
22.183270	1.024824e-05	5.592928e-05	4.098009e-06	3.394076e-05	
22.184271	1.027899e-05	5.666189e-05	4.070607e-06	3.377894e-05	
22.185272	1.030780e-05	5.740830e-05	4.041590e-06	3.358855e-05	
22.186273	1.033475e-05	5.816711e-05	4.011096e-06	3.337084e-05	
22.187274	1.035990e-05	5.893692e-05	3.979264e-06	3.312705e-05	
22.188274	1.038334e-05	5.971633e-05	3.946232e-06	3.285843e-05	
22.189275	1.040513e-05	6.050394e-05	3.912141e-06	3.256623e-05	
22.190276	1.042535e-05	6.129835e-05	3.877127e-06	3.225171e-05	
22.191277	1.044407e-05	6.209817e-05	3.841331e-06	3.191610e-05	
22.192278	1.046136e-05	6.290199e-05	3.804891e-06	3.156065e-05	
22.193279	1.047730e-05	6.370842e-05	3.767946e-06	3.118662e-05	
22.194280	1.049195e-05	6.451606e-05	3.730635e-06	3.079525e-05	
22.195280	1.050540e-05	6.532350e-05	3.693096e-06	3.038779e-05	
22.196281	1.051770e-05	6.612935e-05	3.655469e-06	2.996549e-05	
22.197282	1.052895e-05	6.693222e-05	3.617891e-06	2.952960e-05	
22.198283	1.053920e-05	6.773069e-05	3.580503e-06	2.908136e-05	
22.199284	1.054853e-05	6.852337e-05	3.543442e-06	2.862203e-05	
22.200285	1.055701e-05	6.930887e-05	3.506849e-06	2.815284e-05	
22.201286	1.056472e-05	7.008578e-05	3.470860e-06	2.767506e-05	
22.202286	1.057173e-05	7.085271e-05	3.435616e-06	2.718992e-05	
22.203287	1.057811e-05	7.160825e-05	3.401255e-06	2.669868e-05	
22.204288	1.058393e-05	7.235101e-05	3.367915e-06	2.620258e-05	
22.205289	1.058927e-05	7.307959e-05	3.335737e-06	2.570288e-05	
22.206290	1.059420e-05	7.379258e-05	3.304858e-06	2.520082e-05	
22.207291	1.059878e-05	7.448860e-05	3.275417e-06	2.469764e-05	
22.208292	1.060311e-05	7.516624e-05	3.247553e-06	2.419460e-05	
22.209292	1.060724e-05	7.582410e-05	3.221406e-06	2.369295e-05	
22.210293	1.061124e-05	7.646078e-05	3.197113e-06	2.319394e-05	
22.211294	1.061521e-05	7.707488e-05	3.174814e-06	2.269880e-05	
22.212295	1.061919e-05	7.766501e-05	3.154647e-06	2.220879e-05	
22.213296	1.062327e-05	7.822977e-05	3.136751e-06	2.172517e-05	
22.214297	1.062752e-05	7.876775e-05	3.121266e-06	2.124917e-05	
22.215298	1.063202e-05	7.927757e-05	3.108329e-06	2.078204e-05	
22.216299	1.063683e-05	7.975781e-05	3.098080e-06	2.032504e-05	
22.217299	1.064202e-05	8.020708e-05	3.090657e-06	1.987941e-05	
22.218300	1.064768e-05	8.062398e-05	3.086200e-06	1.944640e-05	
22.219301	1.065387e-05	8.100711e-05	3.084847e-06	1.902725e-05	
22.220302	1.066066e-05	8.135508e-05	3.086737e-06	1.862322e-05	
22.221303	1.066813e-05	8.166647e-05	3.092009e-06	1.823556e-05	
22.222304	1.067635e-05	8.193991e-05	3.100801e-06	1.786551e-05	
22.223305	1.068540e-05	8.217398e-05	3.113252e-06	1.751432e-05	
22.224305	1.069534e-05	8.236729e-05	3.129502e-06	1.718324e-05	
22.225306	1.070627e-05	8.251880e-05	3.149701e-06	1.687337e-05	
22.226307	1.071845e-05	8.263016e-05	3.174090e-06	1.658470e-05	
22.227308	1.073219e-05	8.270425e-05	3.202951e-06	1.631674e-05	
22.228309	1.074784e-05	8.274391e-05	3.236563e-06	1.606898e-05	
22.229310	1.076571e-05	8.275200e-05	3.275208e-06	1.584094e-05	
22.230311	1.078613e-05	8.273140e-05	3.319168e-06	1.563211e-05	
22.231311	1.080943e-05	8.268497e-05	3.368723e-06	1.544199e-05	
22.232312	1.083594e-05	8.261556e-05	3.424156e-06	1.527009e-05	
22.233313	1.086597e-05	8.252604e-05	3.485745e-06	1.511590e-05	
22.234314	1.089987e-05	8.241928e-05	3.553774e-06	1.497893e-05	
22.235315	1.093795e-05	8.229813e-05	3.628523e-06	1.485868e-05	
22.236316	1.098055e-05	8.216545e-05	3.710274e-06	1.475465e-05	
22.237317	1.102798e-05	8.202412e-05	3.799306e-06	1.466634e-05	
22.238318	1.108058e-05	8.187698e-05	3.895902e-06	1.459326e-05	
22.239318	1.113868e-05	8.172691e-05	4.000343e-06	1.453489e-05	
22.240319	1.120259e-05	8.157677e-05	4.112910e-06	1.449076e-05	
22.241320	1.127265e-05	8.142942e-05	4.233883e-06	1.446035e-05	
22.242321	1.134918e-05	8.128772e-05	4.363545e-06	1.444317e-05	
22.243322	1.143252e-05	8.115454e-05	4.502176e-06	1.443871e-05	
22.244323	1.152298e-05	8.103273e-05	4.650057e-06	1.444649e-05	
22.245324	1.162089e-05	8.092516e-05	4.807470e-06	1.446600e-05	
22.246324	1.172659e-05	8.083470e-05	4.974695e-06	1.449675e-05	
22.247325	1.184039e-05	8.076419e-05	5.152014e-06	1.453822e-05	
22.248326	1.196263e-05	8.071652e-05	5.339708e-06	1.458994e-05	
22.249327	1.209363e-05	8.069453e-05	5.538059e-06	1.465139e-05	
22.250328	1.223372e-05	8.070110e-05	5.747346e-06	1.472209e-05	
22.251329	1.238322e-05	8.073908e-05	5.967852e-06	1.480152e-05	
22.252330	1.254246e-05	8.081134e-05	6.199857e-06	1.488919e-05	
22.253330	1.271177e-05	8.092074e-05	6.443643e-06	1.498461e-05	
22.254331	1.289148e-05	8.107014e-05	6.699490e-06	1.508727e-05	
22.255332	1.308191e-05	8.126241e-05	6.967681e-06	1.519668e-05	
22.256333	1.328339e-05	8.150040e-05	7.248495e-06	1.531234e-05	
22.257334	1.349624e-05	8.178698e-05	7.542215e-06	1.543374e-05	
22.258335	1.372079e-05	8.212502e-05	7.849121e-06	1.556040e-05	
22.259336	1.395738e-05	8.251737e-05	8.169495e-06	1.569180e-05	
22.260336	1.420632e-05	8.296689e-05	8.503617e-06	1.582746e-05	
22.261337	1.446794e-05	8.347646e-05	8.851769e-06	1.596687e-05	
22.262338	1.474258e-05	8.404893e-05	9.214232e-06	1.610954e-05	
22.263339	1.503055e-05	8.468716e-05	9.591287e-06	1.625496e-05	
22.264340	1.533218e-05	8.539402e-05	9.983215e-06	1.640265e-05	
22.265341	1.564781e-05	8.617237e-05	1.039030e-05	1.655209e-05	
22.266342	1.597775e-05	8.702507e-05	1.081282e-05	1.670279e-05	
22.267343	1.632233e-05	8.795499e-05	1.125105e-05	1.685426e-05	
22.268343	1.668189e-05	8.896499e-05	1.170528e-05	1.700598e-05	
22.269344	1.705674e-05	9.005792e-05	1.217579e-05	1.715748e-05	
22.270345	1.744721e-05	9.123666e-05	1.266286e-05	1.730824e-05	
22.271346	1.785364e-05	9.250406e-05	1.316678e-05	1.745777e-05	
22.272347	1.827635e-05	9.386298e-05	1.368781e-05	1.760556e-05	
22.273348	1.871566e-05	9.531630e-05	1.422625e-05	1.775113e-05	
22.274349	1.917190e-05	9.686687e-05	1.478237e-05	1.789397e-05	
22.275349	1.964534e-05	9.851676e-05	1.535631e-05	1.803363e-05	
22.276350	2.013585e-05	1.002629e-04	1.594725e-05	1.817001e-05	
22.277351	2.064316e-05	1.021001e-04	1.655398e-05	1.830311e-05	
22.278352	2.116699e-05	1.040234e-04	1.717532e-05	1.843296e-05	
22.279353	2.170706e-05	1.060276e-04	1.781005e-05	1.855957e-05	
22.280354	2.226309e-05	1.081075e-04	1.845698e-05	1.868296e-05	
22.281355	2.283481e-05	1.102581e-04	1.911492e-05	1.880315e-05	
22.282355	2.342194e-05	1.124743e-04	1.978266e-05	1.892015e-05	
22.283356	2.402419e-05	1.147509e-04	2.045900e-05	1.903399e-05	
22.284357	2.464129e-05	1.170829e-04	2.114275e-05	1.914468e-05	
22.285358	2.527297e-05	1.194650e-04	2.183270e-05	1.925223e-05	
22.286359	2.591894e-05	1.218922e-04	2.252766e-05	1.935667e-05	
22.287360	2.657893e-05	1.243595e-04	2.322643e-05	1.945801e-05	
22.288361	2.725266e-05	1.268615e-04	2.392780e-05	1.955628e-05	
22.289362	2.793985e-05	1.293934e-04	2.463059e-05	1.965148e-05	
22.290362	2.864022e-05	1.319498e-04	2.533358e-05	1.974364e-05	
22.291363	2.935349e-05	1.345258e-04	2.603558e-05	1.983277e-05	
22.292364	3.007940e-05	1.371162e-04	2.673539e-05	1.991889e-05	
22.293365	3.081765e-05	1.397159e-04	2.743182e-05	2.000202e-05	
22.294366	3.156798e-05	1.423198e-04	2.812366e-05	2.008217e-05	
22.295367	3.233009e-05	1.449227e-04	2.880971e-05	2.015937e-05	
22.296368	3.310373e-05	1.475195e-04	2.948878e-05	2.023363e-05	
22.297368	3.388860e-05	1.501052e-04	3.015967e-05	2.030497e-05	
22.298369	3.468443e-05	1.526746e-04	3.082117e-05	2.037340e-05	
22.299370	3.549094e-05	1.552226e-04	3.147208e-05	2.043895e-05	
22.300371	3.630785e-05	1.577441e-04	3.211122e-05	2.050162e-05	
22.301372	3.713489e-05	1.602339e-04	3.273738e-05	2.056145e-05	
22.302373	3.797178e-05	1.626870e-04	3.334935e-05	2.061844e-05	
22.303374	3.881824e-05	1.650983e-04	3.394595e-05	2.067261e-05	
22.304374	3.967399e-05	1.674626e-04	3.452597e-05	2.072399e-05	
22.305375	4.053875e-05	1.697747e-04	3.508821e-05	2.077258e-05	
22.306376	4.141225e-05	1.720297e-04	3.563147e-05	2.081841e-05	
22.307377	4.229420e-05	1.742224e-04	3.615456e-05	2.086150e-05	
22.308378	4.318434e-05	1.763476e-04	3.665628e-05	2.090185e-05	
22.309379	4.408237e-05	1.784003e-04	3.713542e-05	2.093949e-05	
22.310380	4.498804e-05	1.803753e-04	3.759079e-05	2.097444e-05	
22.311381	4.590104e-05	1.822675e-04	3.802118e-05	2.100671e-05	
22.312381	4.682112e-05	1.840718e-04	3.842541e-05	2.103633e-05	
22.313382	4.774798e-05	1.857831e-04	3.880226e-05	2.106330e-05	
22.314383	4.868136e-05	1.873963e-04	3.915055e-05	2.108765e-05	
22.315384	4.962097e-05	1.889063e-04	3.946906e-05	2.110939e-05	
22.316385	5.056653e-05	1.903078e-04	3.975661e-05	2.112854e-05	
22.317386	5.151778e-05	1.915960e-04	4.001199e-05	2.114513e-05	
22.318387	5.247442e-05	1.927655e-04	4.023401e-05	2.115916e-05	
22.319387	5.343619e-05	1.938113e-04	4.042146e-05	2.117065e-05	
22.320388	5.440280e-05	1.947284e-04	4.057314e-05	2.117962e-05	
22.321389	5.537397e-05	1.955114e-04	4.068787e-05	2.118609e-05	
22.322390	5.634944e-05	1.961555e-04	4.076443e-05	2.119008e-05	
22.323391	5.732891e-05	1.966554e-04	4.080162e-05	2.119160e-05	
22.324392	5.831212e-05	1.970060e-04	4.079826e-05	2.119068e-05	
22.325393	5.929867e-05	1.972033e-04	4.075345e-05	2.118733e-05	
22.326393	6.028752e-05	1.972496e-04	4.066804e-05	2.118159e-05	
22.327394	6.127742e-05	1.971494e-04	4.054348e-05	2.117352e-05	
22.328395	6.226711e-05	1.969070e-04	4.038124e-05	2.116318e-05	
22.329396	6.325534e-05	1.965269e-04	4.018278e-05	2.115061e-05	
22.330397	6.424083e-05	1.960136e-04	3.994955e-05	2.113587e-05	
22.331398	6.522235e-05	1.953715e-04	3.968302e-05	2.111901e-05	
22.332399	6.619862e-05	1.946051e-04	3.938463e-05	2.110008e-05	
22.333399	6.716839e-05	1.937188e-04	3.905586e-05	2.107914e-05	
22.334400	6.813040e-05	1.927171e-04	3.869816e-05	2.105623e-05	
22.335401	6.908339e-05	1.916043e-04	3.831299e-05	2.103141e-05	
22.336402	7.002610e-05	1.903851e-04	3.790181e-05	2.100474e-05	
22.337403	7.095729e-05	1.890637e-04	3.746607e-05	2.097626e-05	
22.338404	7.187568e-05	1.876447e-04	3.700724e-05	2.094602e-05	
22.339405	7.278002e-05	1.861324e-04	3.652677e-05	2.091409e-05	
22.340406	7.366905e-05	1.845315e-04	3.602613e-05	2.088051e-05	
22.341406	7.454151e-05	1.828462e-04	3.550676e-05	2.084533e-05	
22.342407	7.539615e-05	1.810811e-04	3.497014e-05	2.080861e-05	
22.343408	7.623170e-05	1.792405e-04	3.441772e-05	2.077040e-05	
22.344409	7.704692e-05	1.773290e-04	3.385096e-05	2.073075e-05	
22.345410	7.784053e-05	1.753510e-04	3.327132e-05	2.068971e-05	
22.346411	7.861128e-05	1.733109e-04	3.268025e-05	2.064734e-05	
22.347412	7.935792e-05	1.712132e-04	3.207922e-05	2.060369e-05	
22.348412	8.007919e-05	1.690624e-04	3.146968e-05	2.055882e-05	
22.349413	8.077382e-05	1.668628e-04	3.085310e-05	2.051276e-05	
22.350414	8.144056e-05	1.646189e-04	3.023093e-05	2.046558e-05	
22.351415	8.207815e-05	1.623352e-04	2.960463e-05	2.041734e-05	
22.352416	8.268533e-05	1.600161e-04	2.897566e-05	2.036807e-05	
22.353417	8.326084e-05	1.576661e-04	2.834548e-05	2.031784e-05	
22.354418	8.380344e-05	1.552897e-04	2.771554e-05	2.026669e-05	
22.355418	8.431184e-05	1.528912e-04	2.708732e-05	2.021468e-05	
22.356419	8.478481e-05	1.504750e-04	2.646226e-05	2.016187e-05	
22.357420	8.522108e-05	1.480458e-04	2.584182e-05	2.010829e-05	
22.358421	8.561940e-05	1.456079e-04	2.522747e-05	2.005402e-05	
22.359422	8.597849e-05	1.431657e-04	2.462065e-05	1.999909e-05	
22.360423	8.629712e-05	1.407237e-04	2.402284e-05	1.994356e-05	
22.361424	8.657401e-05	1.382864e-04	2.343549e-05	1.988749e-05	
22.362425	8.680791e-05	1.358582e-04	2.286006e-05	1.983092e-05	
22.363425	8.699756e-05	1.334435e-04	2.229801e-05	1.977392e-05	
22.364426	8.714171e-05	1.310468e-04	2.175079e-05	1.971652e-05	
22.365427	8.723909e-05	1.286726e-04	2.121987e-05	1.965879e-05	
22.366428	8.728845e-05	1.263253e-04	2.070670e-05	1.960077e-05	
22.367429	8.728853e-05	1.240093e-04	2.021275e-05	1.954252e-05	
22.368430	8.723806e-05	1.217291e-04	1.973947e-05	1.948409e-05	
22.369431	8.713580e-05	1.194891e-04	1.928832e-05	1.942554e-05	
22.370431	8.698049e-05	1.172938e-04	1.886076e-05	1.936691e-05	
22.371432	8.677085e-05	1.151476e-04	1.845824e-05	1.930826e-05	
22.372433	8.650565e-05	1.130550e-04	1.808224e-05	1.924964e-05	
22.373434	8.618362e-05	1.110205e-04	1.773420e-05	1.919110e-05	
22.374435	8.580349e-05	1.090484e-04	1.741559e-05	1.913270e-05	
22.375436	8.536454e-05	1.071424e-04	1.712752e-05	1.907456e-05	
22.376437	8.486853e-05	1.053023e-04	1.686940e-05	1.901721e-05	
22.377437	8.431806e-05	1.035264e-04	1.664013e-05	1.896129e-05	
22.378438	8.371568e-05	1.018132e-04	1.643859e-05	1.890742e-05	
22.379439	8.306396e-05	1.001612e-04	1.626368e-05	1.885624e-05	
22.380440	8.236548e-05	9.856889e-05	1.611428e-05	1.880840e-05	
22.381441	8.162281e-05	9.703468e-05	1.598930e-05	1.876453e-05	
22.382442	8.083851e-05	9.555706e-05	1.588761e-05	1.872527e-05	
22.383443	8.001516e-05	9.413447e-05	1.580812e-05	1.869125e-05	
22.384443	7.915532e-05	9.276540e-05	1.574970e-05	1.866312e-05	
22.385444	7.826156e-05	9.144830e-05	1.571126e-05	1.864150e-05	
22.386445	7.733646e-05	9.018162e-05	1.569168e-05	1.862704e-05	
22.387446	7.638259e-05	8.896385e-05	1.568985e-05	1.862037e-05	
22.388447	7.540251e-05	8.779343e-05	1.570467e-05	1.862214e-05	
22.389448	7.439880e-05	8.666884e-05	1.573502e-05	1.863297e-05	
22.390449	7.337402e-05	8.558853e-05	1.577980e-05	1.865351e-05	
22.391450	7.233074e-05	8.455097e-05	1.583789e-05	1.868439e-05	
22.392450	7.127154e-05	8.355463e-05	1.590819e-05	1.872625e-05	
22.393451	7.019899e-05	8.259795e-05	1.598959e-05	1.877972e-05	
22.394452	6.911565e-05	8.167942e-05	1.608098e-05	1.884545e-05	
22.395453	6.802409e-05	8.079749e-05	1.618125e-05	1.892407e-05	
22.396454	6.692689e-05	7.995062e-05	1.628929e-05	1.901622e-05	
22.397455	6.582661e-05	7.913728e-05	1.640399e-05	1.912253e-05	
22.398456	6.472583e-05	7.835592e-05	1.652425e-05	1.924365e-05	
22.399456	6.362711e-05	7.760503e-05	1.664894e-05	1.938020e-05	
22.400457	6.253303e-05	7.688304e-05	1.677697e-05	1.953283e-05	
22.401458	6.144614e-05	7.618844e-05	1.690723e-05	1.970218e-05	
22.402459	6.036904e-05	7.551968e-05	1.703860e-05	1.988888e-05	
22.403460	5.930427e-05	7.487523e-05	1.716998e-05	2.009356e-05	
22.404461	5.825443e-05	7.425354e-05	1.730025e-05	2.031687e-05	
22.405462	5.722206e-05	7.365309e-05	1.742832e-05	2.055945e-05	
22.406462	5.620975e-05	7.307233e-05	1.755306e-05	2.082192e-05	
22.407463	5.522006e-05	7.250973e-05	1.767337e-05	2.110493e-05	
22.408464	5.425557e-05	7.196375e-05	1.778814e-05	2.140912e-05	
22.409465	5.331884e-05	7.143285e-05	1.789626e-05	2.173512e-05	
22.410466	5.241244e-05	7.091550e-05	1.799663e-05	2.208356e-05	
22.411467	5.153894e-05	7.041017e-05	1.808813e-05	2.245509e-05	
22.412468	5.070092e-05	6.991530e-05	1.816965e-05	2.285035e-05	
22.413469	4.990095e-05	6.942937e-05	1.824009e-05	2.326996e-05	
22.414469	4.914158e-05	6.895084e-05	1.829833e-05	2.371457e-05	
22.415470	4.842540e-05	6.847818e-05	1.834327e-05	2.418482e-05	
22.416471	4.775498e-05	6.800984e-05	1.837380e-05	2.468134e-05	
22.417472	4.713287e-05	6.754429e-05	1.838880e-05	2.520476e-05	
22.418473	4.656166e-05	6.707999e-05	1.838718e-05	2.575574e-05	
22.419474	4.604391e-05	6.661540e-05	1.836781e-05	2.633489e-05	
22.420475	4.558220e-05	6.614900e-05	1.832959e-05	2.694287e-05	
22.421475	4.517908e-05	6.567923e-05	1.827142e-05	2.758030e-05	
22.422476	4.483714e-05	6.520457e-05	1.819218e-05	2.824783e-05	
22.423477	4.455895e-05	6.472348e-05	1.809076e-05	2.894609e-05	
22.424478	4.434706e-05	6.423442e-05	1.796605e-05	2.967572e-05	
22.425479	4.420323e-05	6.373616e-05	1.781729e-05	3.043702e-05	
22.426480	4.412555e-05	6.322886e-05	1.764519e-05	3.122878e-05	
22.427481	4.411119e-05	6.271304e-05	1.745086e-05	3.204943e-05	
22.428481	4.415726e-05	6.218920e-05	1.723541e-05	3.289737e-05	
22.429482	4.426092e-05	6.165786e-05	1.699997e-05	3.377101e-05	
22.430483	4.441929e-05	6.111955e-05	1.674563e-05	3.466875e-05	
22.431484	4.462952e-05	6.057478e-05	1.647352e-05	3.558900e-05	
22.432485	4.488875e-05	6.002406e-05	1.618475e-05	3.653018e-05	
22.433486	4.519410e-05	5.946791e-05	1.588043e-05	3.749068e-05	
22.434487	4.554274e-05	5.890684e-05	1.556168e-05	3.846892e-05	
22.435487	4.593178e-05	5.834138e-05	1.522960e-05	3.946331e-05	
22.436488	4.635837e-05	5.777204e-05	1.488531e-05	4.047225e-05	
22.437489	4.681964e-05	5.719934e-05	1.452993e-05	4.149414e-05	
22.438490	4.731275e-05	5.662379e-05	1.416456e-05	4.252741e-05	
22.439491	4.783481e-05	5.604591e-05	1.379033e-05	4.357046e-05	
22.440492	4.838298e-05	5.546621e-05	1.340834e-05	4.462169e-05	
22.441493	4.895438e-05	5.488522e-05	1.301971e-05	4.567951e-05	
22.442494	4.954617e-05	5.430344e-05	1.262555e-05	4.674233e-05	
22.443494	5.015547e-05	5.372140e-05	1.222697e-05	4.780856e-05	
22.444495	5.077943e-05	5.313962e-05	1.182509e-05	4.887660e-05	
22.445496	5.141518e-05	5.255860e-05	1.142101e-05	4.994487e-05	
22.446497	5.205986e-05	5.197886e-05	1.101587e-05	5.101178e-05	
22.447498	5.271061e-05	5.140093e-05	1.061076e-05	5.207572e-05	
22.448499	5.336457e-05	5.082531e-05	1.020680e-05	5.313511e-05	
22.449500	5.401887e-05	5.025253e-05	9.805098e-06	5.418835e-05	
22.450500	5.467066e-05	4.968310e-05	9.406777e-06	5.523386e-05	
22.451501	5.531707e-05	4.911753e-05	9.012946e-06	5.627004e-05	
22.452502	5.595525e-05	4.855635e-05	8.624717e-06	5.729530e-05	
22.453503	5.658232e-05	4.800007e-05	8.243205e-06	5.830805e-05	
22.454504	5.719543e-05	4.744920e-05	7.869522e-06	5.930669e-05	
22.455505	5.779172e-05	4.690427e-05	7.504782e-06	6.028963e-05	
22.456506	5.836832e-05	4.636579e-05	7.150098e-06	6.125529e-05	
22.457506	5.892238e-05	4.583427e-05	6.806583e-06	6.220207e-05	
22.458507	5.945102e-05	4.531024e-05	6.475350e-06	6.312837e-05	
22.459508	5.995140e-05	4.479420e-05	6.157514e-06	6.403261e-05	
22.460509	6.042064e-05	4.428668e-05	5.854185e-06	6.491319e-05	
22.461510	6.085589e-05	4.378819e-05	5.566480e-06	6.576852e-05	
22.462511	6.125429e-05	4.329924e-05	5.295509e-06	6.659701e-05	
22.463512	6.161296e-05	4.282037e-05	5.042387e-06	6.739706e-05	
22.464513	6.192906e-05	4.235207e-05	4.808227e-06	6.816709e-05	
22.465513	6.219971e-05	4.189487e-05	4.594142e-06	6.890551e-05	
22.466514	6.242207e-05	4.144928e-05	4.401245e-06	6.961071e-05	
22.467515	6.259326e-05	4.101583e-05	4.230650e-06	7.028111e-05	
22.468516	6.271042e-05	4.059502e-05	4.083470e-06	7.091512e-05	
22.469517	6.277069e-05	4.018737e-05	3.960818e-06	7.151114e-05	
22.470518	6.277122e-05	3.979341e-05	3.863807e-06	7.206759e-05	
22.471519	6.270914e-05	3.941364e-05	3.793551e-06	7.258286e-05	
22.472519	6.258158e-05	3.904858e-05	3.751163e-06	7.305537e-05	
22.473520	6.238569e-05	3.869875e-05	3.737755e-06	7.348353e-05	
22.474521	6.211860e-05	3.836467e-05	3.754442e-06	7.386574e-05	
22.475522	6.177841e-05	3.804664e-05	3.801937e-06	7.420093e-05	
22.476523	6.136687e-05	3.774415e-05	3.879437e-06	7.449001e-05	
22.477524	6.088659e-05	3.745649e-05	3.985776e-06	7.473436e-05	
22.478525	6.034018e-05	3.718298e-05	4.119788e-06	7.493535e-05	
22.479525	5.973026e-05	3.692291e-05	4.280308e-06	7.509436e-05	
22.480526	5.905944e-05	3.667557e-05	4.466170e-06	7.521278e-05	
22.481527	5.833033e-05	3.644027e-05	4.676208e-06	7.529197e-05	
22.482528	5.754555e-05	3.621631e-05	4.909258e-06	7.533332e-05	
22.483529	5.670771e-05	3.600298e-05	5.164153e-06	7.533821e-05	
22.484530	5.581943e-05	3.579958e-05	5.439728e-06	7.530800e-05	
22.485531	5.488332e-05	3.560542e-05	5.734818e-06	7.524409e-05	
22.486531	5.390199e-05	3.541979e-05	6.048257e-06	7.514784e-05	
22.487532	5.287806e-05	3.524199e-05	6.378878e-06	7.502065e-05	
22.488533	5.181413e-05	3.507133e-05	6.725518e-06	7.486387e-05	
22.489534	5.071283e-05	3.490709e-05	7.087010e-06	7.467890e-05	
22.490535	4.957677e-05	3.474858e-05	7.462188e-06	7.446711e-05	
22.491536	4.840855e-05	3.459510e-05	7.849888e-06	7.422988e-05	
22.492537	4.721081e-05	3.444595e-05	8.248943e-06	7.396858e-05	
22.493538	4.598614e-05	3.430042e-05	8.658188e-06	7.368460e-05	
22.494538	4.473716e-05	3.415782e-05	9.076458e-06	7.337931e-05	
22.495539	4.346648e-05	3.401745e-05	9.502586e-06	7.305409e-05	
22.496540	4.217673e-05	3.387859e-05	9.935408e-06	7.271032e-05	
22.497541	4.087051e-05	3.374056e-05	1.037376e-05	7.234938e-05	
22.498542	3.955043e-05	3.360265e-05	1.081647e-05	7.197264e-05	
22.499543	3.821912e-05	3.346417e-05	1.126238e-05	7.158148e-05	
22.500544	3.687918e-05	3.332440e-05	1.171032e-05	7.117728e-05	
22.501544	3.553322e-05	3.318265e-05	1.215912e-05	7.076142e-05	
22.502545	3.418387e-05	3.303823e-05	1.260763e-05	7.033528e-05	
22.503546	3.283373e-05	3.289042e-05	1.305467e-05	6.990023e-05	
22.504547	3.148542e-05	3.273852e-05	1.349908e-05	6.945766e-05	
22.505548	3.014155e-05	3.258184e-05	1.393969e-05	6.900893e-05	
22.506549	2.880473e-05	3.241968e-05	1.437534e-05	6.855543e-05	
22.507550	2.747759e-05	3.225133e-05	1.480486e-05	6.809854e-05	
22.508550	2.616273e-05	3.207610e-05	1.522709e-05	6.763964e-05	
22.509551	2.486276e-05	3.189327e-05	1.564086e-05	6.718009e-05	
22.510552	2.358031e-05	3.170216e-05	1.604501e-05	6.672129e-05	
22.511553	2.231798e-05	3.150206e-05	1.643836e-05	6.626460e-05	
22.512554	2.107838e-05	3.129227e-05	1.681977e-05	6.581141e-05	
22.513555	1.986414e-05	3.107209e-05	1.718805e-05	6.536309e-05	
22.514556	1.867786e-05	3.084081e-05	1.754204e-05	6.492103e-05	
22.515557	1.752216e-05	3.059775e-05	1.788058e-05	6.448660e-05	
22.516557	1.639965e-05	3.034219e-05	1.820250e-05	6.406117e-05	
22.517558	1.531295e-05	3.007343e-05	1.850664e-05	6.364613e-05	
22.518559	1.426466e-05	2.979078e-05	1.879183e-05	6.324286e-05	
22.519560	1.325741e-05	2.949353e-05	1.905691e-05	6.285272e-05	
22.520561	1.229381e-05	2.918099e-05	1.930071e-05	6.247711e-05	
22.521562	1.137646e-05	2.885245e-05	1.952206e-05	6.211740e-05	
22.522563	1.050799e-05	2.850721e-05	1.971980e-05	6.177496e-05	
22.523563	9.691007e-06	2.814457e-05	1.989276e-05	6.145118e-05	
22.524564	8.928124e-06	2.776383e-05	2.003979e-05	6.114742e-05	
22.525565	8.221134e-06	2.736483e-05	2.016006e-05	6.086461e-05	
22.526566	7.569075e-06	2.694920e-05	2.025398e-05	6.060205e-05	
22.527567	6.970412e-06	2.651898e-05	2.032220e-05	6.035873e-05	
22.528568	6.423609e-06	2.607618e-05	2.036537e-05	6.013365e-05	
22.529569	5.927130e-06	2.562282e-05	2.038413e-05	5.992578e-05	
22.530569	5.479439e-06	2.516091e-05	2.037914e-05	5.973413e-05	
22.531570	5.079001e-06	2.469249e-05	2.035103e-05	5.955767e-05	
22.532571	4.724279e-06	2.421957e-05	2.030047e-05	5.939539e-05	
22.533572	4.413738e-06	2.374416e-05	2.022809e-05	5.924629e-05	
22.534573	4.145841e-06	2.326829e-05	2.013456e-05	5.910935e-05	
22.535574	3.919054e-06	2.279398e-05	2.002050e-05	5.898355e-05	
22.536575	3.731840e-06	2.232325e-05	1.988659e-05	5.886790e-05	
22.537575	3.582663e-06	2.185812e-05	1.973345e-05	5.876136e-05	
22.538576	3.469988e-06	2.140060e-05	1.956175e-05	5.866295e-05	
22.539577	3.392279e-06	2.095272e-05	1.937212e-05	5.857163e-05	
22.540578	3.347999e-06	2.051650e-05	1.916523e-05	5.848640e-05	
22.541579	3.335614e-06	2.009395e-05	1.894171e-05	5.840625e-05	
22.542580	3.353587e-06	1.968710e-05	1.870222e-05	5.833016e-05	
22.543581	3.400382e-06	1.929796e-05	1.844740e-05	5.825713e-05	
22.544582	3.474464e-06	1.892856e-05	1.817790e-05	5.818614e-05	
22.545582	3.574296e-06	1.858092e-05	1.789438e-05	5.811618e-05	
22.546583	3.698344e-06	1.825705e-05	1.759747e-05	5.804624e-05	
22.547584	3.845070e-06	1.795898e-05	1.728784e-05	5.797530e-05	
22.548585	4.012940e-06	1.768872e-05	1.696611e-05	5.790236e-05	
22.549586	4.200417e-06	1.744830e-05	1.663296e-05	5.782640e-05	
22.550587	4.405966e-06	1.723973e-05	1.628902e-05	5.774641e-05	
22.551588	4.628051e-06	1.706503e-05	1.593494e-05	5.766138e-05	
22.552588	4.865135e-06	1.692623e-05	1.557137e-05	5.757029e-05	
22.553589	5.115684e-06	1.682534e-05	1.519896e-05	5.747214e-05	
22.554590	5.378160e-06	1.676438e-05	1.481836e-05	5.736591e-05	
22.555591	5.651029e-06	1.674538e-05	1.443021e-05	5.725059e-05	
22.556592	5.932755e-06	1.677035e-05	1.403517e-05	5.712518e-05	
22.557593	6.221802e-06	1.684131e-05	1.363389e-05	5.698864e-05	
22.558594	6.516633e-06	1.696029e-05	1.322700e-05	5.683999e-05	
22.559594	6.815714e-06	1.712929e-05	1.281517e-05	5.667820e-05	
22.560595	7.117508e-06	1.735035e-05	1.239903e-05	5.650225e-05	
22.561596	7.420479e-06	1.762548e-05	1.197924e-05	5.631115e-05	
22.562597	7.723092e-06	1.795670e-05	1.155645e-05	5.610388e-05	
22.563598	8.023810e-06	1.834603e-05	1.113130e-05	5.587942e-05	
22.564599	8.321099e-06	1.879549e-05	1.070445e-05	5.563676e-05	
22.565600	8.613422e-06	1.930710e-05	1.027654e-05	5.537490e-05	
22.566601	8.899243e-06	1.988288e-05	9.848215e-06	5.509282e-05	
22.567601	9.177026e-06	2.052485e-05	9.420131e-06	5.478950e-05	
22.568602	9.445236e-06	2.123503e-05	8.992934e-06	5.446394e-05	
22.569603	9.702337e-06	2.201544e-05	8.567274e-06	5.411513e-05	
22.570604	9.946792e-06	2.286810e-05	8.143798e-06	5.374204e-05	
22.571605	1.017707e-05	2.379502e-05	7.723154e-06	5.334368e-05	
22.572606	1.039163e-05	2.479824e-05	7.305992e-06	5.291903e-05	
22.573607	1.058893e-05	2.587976e-05	6.892960e-06	5.246707e-05	
22.574607	1.076745e-05	2.704161e-05	6.484706e-06	5.198680e-05	
22.575608	1.092611e-05	2.828445e-05	6.081841e-06	5.147767e-05	
22.576609	1.106523e-05	2.960493e-05	5.684865e-06	5.094049e-05	
22.577610	1.118537e-05	3.099897e-05	5.294256e-06	5.037635e-05	
22.578611	1.128710e-05	3.246251e-05	4.910493e-06	4.978632e-05	
22.579612	1.137098e-05	3.399146e-05	4.534056e-06	4.917146e-05	
22.580613	1.143757e-05	3.558175e-05	4.165423e-06	4.853286e-05	
22.581613	1.148745e-05	3.722930e-05	3.805073e-06	4.787158e-05	
22.582614	1.152118e-05	3.893002e-05	3.453485e-06	4.718870e-05	
22.583615	1.153931e-05	4.067985e-05	3.111138e-06	4.648528e-05	
22.584616	1.154243e-05	4.247471e-05	2.778511e-06	4.576242e-05	
22.585617	1.153109e-05	4.431052e-05	2.456083e-06	4.502116e-05	
22.586618	1.150585e-05	4.618321e-05	2.144333e-06	4.426260e-05	
22.587619	1.146729e-05	4.808868e-05	1.843740e-06	4.348780e-05	
22.588619	1.141597e-05	5.002288e-05	1.554782e-06	4.269784e-05	
22.589620	1.135244e-05	5.198172e-05	1.277939e-06	4.189378e-05	
22.590621	1.127729e-05	5.396112e-05	1.013690e-06	4.107670e-05	
22.591622	1.119107e-05	5.595701e-05	7.625132e-07	4.024768e-05	
22.592623	1.109435e-05	5.796532e-05	5.248878e-07	3.940778e-05	
22.593624	1.098769e-05	5.998195e-05	3.012929e-07	3.855809e-05	
22.594625	1.087165e-05	6.200284e-05	9.220725e-08	3.769966e-05	
22.595626	1.074681e-05	6.402391e-05	-1.018901e-07	3.683359e-05	
22.596626	1.061373e-05	6.604109e-05	-2.805201e-07	3.596093e-05	
22.597627	1.047298e-05	6.805028e-05	-4.432041e-07	3.508276e-05	
22.598628	1.032511e-05	7.004743e-05	-5.894629e-07	3.420016e-05	
22.599629	1.017069e-05	7.202845e-05	-7.188177e-07	3.331419e-05	
22.600630	1.001030e-05	7.398926e-05	-8.307895e-07	3.242593e-05	
22.601631	9.844486e-06	7.592578e-05	-9.248994e-07	3.153646e-05	
22.602632	9.673823e-06	7.783395e-05	-1.000668e-06	3.064685e-05	
22.603632	9.498873e-06	7.970968e-05	-1.057618e-06	2.975816e-05	
22.604633	9.320203e-06	8.154889e-05	-1.095268e-06	2.887147e-05	
22.605634	9.138376e-06	8.334751e-05	-1.113141e-06	2.798786e-05	
22.606635	8.953959e-06	8.510147e-05	-1.110757e-06	2.710840e-05	
22.607636	8.767516e-06	8.680667e-05	-1.087638e-06	2.623416e-05	
22.608637	8.579612e-06	8.845906e-05	-1.043304e-06	2.536621e-05	
22.609638	8.390813e-06	9.005454e-05	-9.772771e-07	2.450562e-05	
22.610638	8.201683e-06	9.158905e-05	-8.890775e-07	2.365348e-05	
22.611639	8.012788e-06	9.305850e-05	-7.782267e-07	2.281085e-05	
22.612640	7.824693e-06	9.445882e-05	-6.442456e-07	2.197881e-05	
22.613641	7.637962e-06	9.578593e-05	-4.866553e-07	2.115842e-05	
22.614642	7.453161e-06	9.703575e-05	-3.049770e-07	2.035076e-05	
22.615643	7.270855e-06	9.820422e-05	-9.873156e-08	1.955691e-05	
22.616644	7.091609e-06	9.928724e-05	1.325598e-07	1.877794e-05	
22.617645	6.915989e-06	1.002807e-04	3.893762e-07	1.801491e-05	
22.618645	6.744558e-06	1.011807e-04	6.721964e-07	1.726891e-05	
22.619646	6.577883e-06	1.019829e-04	9.814993e-07	1.654101e-05	
22.620647	6.416527e-06	1.026834e-04	1.317764e-06	1.583227e-05	
22.621648	6.261058e-06	1.032781e-04	1.681469e-06	1.514377e-05	
22.622649	6.112039e-06	1.037628e-04	2.073095e-06	1.447659e-05	
22.623650	5.970035e-06	1.041336e-04	2.493118e-06	1.383180e-05	
22.624651	5.835612e-06	1.043863e-04	2.942018e-06	1.321047e-05	
22.625651	5.709166e-06	1.045190e-04	3.419811e-06	1.261329e-05	
22.626652	5.590658e-06	1.045349e-04	3.925310e-06	1.203998e-05	
22.627653	5.479978e-06	1.044383e-04	4.457138e-06	1.149011e-05	
22.628654	5.377016e-06	1.042333e-04	5.013915e-06	1.096323e-05	
22.629655	5.281663e-06	1.039242e-04	5.594263e-06	1.045891e-05	
22.630656	5.193810e-06	1.035151e-04	6.196803e-06	9.976703e-06	
22.631657	5.113346e-06	1.030102e-04	6.820156e-06	9.516170e-06	
22.632657	5.040161e-06	1.024137e-04	7.462944e-06	9.076872e-06	
22.633658	4.974147e-06	1.017298e-04	8.123788e-06	8.658369e-06	
22.634659	4.915194e-06	1.009628e-04	8.801309e-06	8.260223e-06	
22.635660	4.863192e-06	1.001167e-04	9.494129e-06	7.881993e-06	
22.636661	4.818031e-06	9.919578e-05	1.020087e-05	7.523240e-06	
22.637662	4.779601e-06	9.820425e-05	1.092015e-05	7.183525e-06	
22.638663	4.747794e-06	9.714627e-05	1.165059e-05	6.862406e-06	
22.639664	4.722499e-06	9.602605e-05	1.239082e-05	6.559446e-06	
22.640664	4.703607e-06	9.484777e-05	1.313945e-05	6.274204e-06	
22.641665	4.691009e-06	9.361563e-05	1.389511e-05	6.006241e-06	
22.642666	4.684593e-06	9.233382e-05	1.465642e-05	5.755116e-06	
22.643667	4.684252e-06	9.100653e-05	1.542199e-05	5.520391e-06	
22.644668	4.689875e-06	8.963795e-05	1.619046e-05	5.301626e-06	
22.645669	4.701352e-06	8.823227e-05	1.696043e-05	5.098381e-06	
22.646670	4.718574e-06	8.679368e-05	1.773054e-05	4.910217e-06	
22.647670	4.741432e-06	8.532638e-05	1.849941e-05	4.736693e-06	
22.648671	4.769816e-06	8.383456e-05	1.926565e-05	4.577371e-06	
22.649672	4.803615e-06	8.232241e-05	2.002788e-05	4.431810e-06	
22.650673	4.842721e-06	8.079411e-05	2.078474e-05	4.299571e-06	
22.651674	4.887024e-06	7.925387e-05	2.153483e-05	4.180214e-06	
22.652675	4.936413e-06	7.770588e-05	2.227679e-05	4.073300e-06	
22.653676	4.990781e-06	7.615431e-05	2.300923e-05	3.978390e-06	
22.654676	5.050016e-06	7.460338e-05	2.373077e-05	3.895042e-06	
22.655677	5.114009e-06	7.305726e-05	2.444003e-05	3.822819e-06	
22.656678	5.182651e-06	7.152015e-05	2.513564e-05	3.761280e-06	
22.657679	5.255832e-06	6.999624e-05	2.581622e-05	3.709985e-06	
22.658680	5.333443e-06	6.848973e-05	2.648039e-05	3.668495e-06	
22.659681	5.415373e-06	6.700479e-05	2.712676e-05	3.636370e-06	
22.660682	5.501513e-06	6.554564e-05	2.775397e-05	3.613171e-06	
22.661682	5.591753e-06	6.411645e-05	2.836063e-05	3.598458e-06	
22.662683	5.685984e-06	6.272142e-05	2.894537e-05	3.591792e-06	
22.663684	5.784096e-06	6.136474e-05	2.950680e-05	3.592732e-06	
22.664685	5.885980e-06	6.005060e-05	3.004354e-05	3.600839e-06	
22.665686	5.991526e-06	5.878320e-05	3.055423e-05	3.615674e-06	
22.666687	6.100624e-06	5.756672e-05	3.103747e-05	3.636796e-06	
22.667688	6.213164e-06	5.640536e-05	3.149189e-05	3.663767e-06	
22.668689	6.329037e-06	5.530330e-05	3.191611e-05	3.696146e-06	
22.669689	6.448134e-06	5.426475e-05	3.230876e-05	3.733494e-06	
22.670690	6.570344e-06	5.329388e-05	3.266845e-05	3.775372e-06	
22.671691	6.695559e-06	5.239490e-05	3.299381e-05	3.821339e-06	
22.672692	6.823668e-06	5.157199e-05	3.328345e-05	3.870957e-06	
22.673693	6.954561e-06	5.082935e-05	3.353601e-05	3.923784e-06	
22.674694	7.088130e-06	5.017116e-05	3.375009e-05	3.979383e-06	
22.675695	7.224251e-06	4.959970e-05	3.392502e-05	4.037397e-06	
22.676695	7.362775e-06	4.911287e-05	3.406170e-05	4.097662e-06	
22.677696	7.503545e-06	4.870798e-05	3.416125e-05	4.160041e-06	
22.678697	7.646408e-06	4.838230e-05	3.422481e-05	4.224397e-06	
22.679698	7.791209e-06	4.813313e-05	3.425348e-05	4.290592e-06	
22.680699	7.937792e-06	4.795777e-05	3.424841e-05	4.358489e-06	
22.681700	8.086004e-06	4.785351e-05	3.421070e-05	4.427951e-06	
22.682701	8.235688e-06	4.781763e-05	3.414150e-05	4.498841e-06	
22.683701	8.386690e-06	4.784742e-05	3.404192e-05	4.571021e-06	
22.684702	8.538855e-06	4.794019e-05	3.391309e-05	4.644355e-06	
22.685703	8.692029e-06	4.809322e-05	3.375614e-05	4.718705e-06	
22.686704	8.846057e-06	4.830380e-05	3.357218e-05	4.793934e-06	
22.687705	9.000783e-06	4.856923e-05	3.336234e-05	4.869905e-06	
22.688706	9.156053e-06	4.888679e-05	3.312776e-05	4.946480e-06	
22.689707	9.311712e-06	4.925378e-05	3.286955e-05	5.023522e-06	
22.690708	9.467605e-06	4.966749e-05	3.258883e-05	5.100895e-06	
22.691708	9.623578e-06	5.012522e-05	3.228675e-05	5.178460e-06	
22.692709	9.779475e-06	5.062424e-05	3.196441e-05	5.256081e-06	
22.693710	9.935141e-06	5.116186e-05	3.162294e-05	5.333620e-06	
22.694711	1.009042e-05	5.173537e-05	3.126347e-05	5.410940e-06	
22.695712	1.024516e-05	5.234205e-05	3.088713e-05	5.487904e-06	
22.696713	1.039921e-05	5.297920e-05	3.049503e-05	5.564376e-06	
22.697714	1.055241e-05	5.364412e-05	3.008831e-05	5.640216e-06	
22.698714	1.070460e-05	5.433408e-05	2.966809e-05	5.715289e-06	
22.699715	1.085563e-05	5.504639e-05	2.923549e-05	5.789457e-06	
22.700716	1.100535e-05	5.577834e-05	2.879164e-05	5.862583e-06	
22.701717	1.115360e-05	5.652721e-05	2.833766e-05	5.934530e-06	
22.702718	1.130022e-05	5.729031e-05	2.787468e-05	6.005160e-06	
22.703719	1.144507e-05	5.806491e-05	2.740383e-05	6.074336e-06	
22.704720	1.158798e-05	5.884832e-05	2.692622e-05	6.141922e-06	
22.705720	1.172880e-05	5.963782e-05	2.644299e-05	6.207779e-06	
22.706721	1.186738e-05	6.043071e-05	2.595526e-05	6.271771e-06	
22.707722	1.200356e-05	6.122427e-05	2.546415e-05	6.333760e-06	
22.708723	1.213719e-05	6.201581e-05	2.497078e-05	6.393609e-06	
22.709724	1.226811e-05	6.280260e-05	2.447630e-05	6.451181e-06	
22.710725	1.239617e-05	6.358195e-05	2.398181e-05	6.506339e-06	
22.711726	1.252121e-05	6.435114e-05	2.348844e-05	6.558946e-06	
22.712726	1.264308e-05	6.510747e-05	2.299733e-05	6.608863e-06	
22.713727	1.276162e-05	6.584822e-05	2.250958e-05	6.655955e-06	
22.714728	1.287667e-05	6.657070e-05	2.202634e-05	6.700084e-06	
22.715729	1.298809e-05	6.727218e-05	2.154872e-05	6.741112e-06	
22.716730	1.309572e-05	6.794997e-05	2.107784e-05	6.778903e-06	
22.717731	1.319940e-05	6.860135e-05	2.061485e-05	6.813319e-06	
22.718732	1.329898e-05	6.922361e-05	2.016085e-05	6.844223e-06	
22.719733	1.339431e-05	6.981406e-05	1.971697e-05	6.871478e-06	
22.720733	1.348522e-05	7.036997e-05	1.928434e-05	6.894946e-06	
22.721734	1.357156e-05	7.088864e-05	1.886409e-05	6.914491e-06	
22.722735	1.365319e-05	7.136736e-05	1.845733e-05	6.929975e-06	
22.723736	1.372994e-05	7.180343e-05	1.806520e-05	6.941260e-06	
22.724737	1.380165e-05	7.219414e-05	1.768881e-05	6.948211e-06	
22.725738	1.386826e-05	7.253794e-05	1.732885e-05	6.950780e-06	
22.726739	1.392983e-05	7.283562e-05	1.698506e-05	6.949101e-06	
22.727739	1.398645e-05	7.308823e-05	1.665711e-05	6.943329e-06	
22.728740	1.403821e-05	7.329686e-05	1.634465e-05	6.933621e-06	
22.729741	1.408519e-05	7.346256e-05	1.604731e-05	6.920133e-06	
22.730742	1.412750e-05	7.358642e-05	1.576477e-05	6.903021e-06	
22.731743	1.416522e-05	7.366950e-05	1.549666e-05	6.882441e-06	
22.732744	1.419843e-05	7.371286e-05	1.524264e-05	6.858550e-06	
22.733745	1.422724e-05	7.371758e-05	1.500236e-05	6.831503e-06	
22.734745	1.425172e-05	7.368473e-05	1.477546e-05	6.801457e-06	
22.735746	1.427196e-05	7.361537e-05	1.456161e-05	6.768567e-06	
22.736747	1.428807e-05	7.351058e-05	1.436045e-05	6.732990e-06	
22.737748	1.430012e-05	7.337143e-05	1.417163e-05	6.694882e-06	
22.738749	1.430821e-05	7.319897e-05	1.399480e-05	6.654399e-06	
22.739750	1.431242e-05	7.299429e-05	1.382962e-05	6.611697e-06	
22.740751	1.431285e-05	7.275845e-05	1.367573e-05	6.566932e-06	
22.741752	1.430959e-05	7.249253e-05	1.353279e-05	6.520260e-06	
22.742752	1.430272e-05	7.219758e-05	1.340044e-05	6.471838e-06	
22.743753	1.429233e-05	7.187468e-05	1.327834e-05	6.421821e-06	
22.744754	1.427852e-05	7.152490e-05	1.316614e-05	6.370366e-06	
22.745755	1.426137e-05	7.114931e-05	1.306349e-05	6.317628e-06	
22.746756	1.424098e-05	7.074898e-05	1.297004e-05	6.263765e-06	
22.747757	1.421742e-05	7.032497e-05	1.288544e-05	6.208931e-06	
22.748758	1.419080e-05	6.987836e-05	1.280934e-05	6.153283e-06	
22.749758	1.416121e-05	6.941022e-05	1.274139e-05	6.096978e-06	
22.750759	1.412872e-05	6.892161e-05	1.268125e-05	6.040170e-06	
22.751760	1.409344e-05	6.841360e-05	1.262856e-05	5.983018e-06	
22.752761	1.405545e-05	6.788726e-05	1.258298e-05	5.925675e-06	
22.753762	1.401483e-05	6.734367e-05	1.254415e-05	5.868299e-06	
22.754763	1.397169e-05	6.678389e-05	1.251173e-05	5.811046e-06	
22.755764	1.392611e-05	6.620898e-05	1.248537e-05	5.754072e-06	
22.756764	1.387818e-05	6.562003e-05	1.246472e-05	5.697532e-06	
22.757765	1.382799e-05	6.501810e-05	1.244942e-05	5.641584e-06	
22.758766	1.377562e-05	6.440425e-05	1.243914e-05	5.586382e-06	
22.759767	1.372118e-05	6.377956e-05	1.243352e-05	5.532084e-06	
22.760768	1.366474e-05	6.314510e-05	1.243221e-05	5.478845e-06	
22.761769	1.360640e-05	6.250194e-05	1.243486e-05	5.426822e-06	
22.762770	1.354625e-05	6.185113e-05	1.244113e-05	5.376170e-06	
22.763770	1.348438e-05	6.119377e-05	1.245066e-05	5.327046e-06	
22.764771	1.342087e-05	6.053090e-05	1.246311e-05	5.279605e-06	
22.765772	1.335582e-05	5.986361e-05	1.247813e-05	5.234004e-06	
22.766773	1.328931e-05	5.919296e-05	1.249536e-05	5.190400e-06	
22.767774	1.322144e-05	5.852002e-05	1.251446e-05	5.148947e-06	
22.768775	1.315230e-05	5.784586e-05	1.253508e-05	5.109803e-06	
22.769776	1.308197e-05	5.717156e-05	1.255688e-05	5.073123e-06	
22.770777	1.301054e-05	5.649817e-05	1.257949e-05	5.039063e-06	
22.771777	1.293811e-05	5.582676e-05	1.260257e-05	5.007780e-06	
22.772778	1.286477e-05	5.515842e-05	1.262578e-05	4.979430e-06	
22.773779	1.279059e-05	5.449420e-05	1.264876e-05	4.954168e-06	
22.774780	1.271568e-05	5.383517e-05	1.267117e-05	4.932150e-06	
22.775781	1.264012e-05	5.318218e-05	1.269274e-05	4.913429e-06	
22.776782	1.256399e-05	5.253565e-05	1.271336e-05	4.897877e-06	
22.777783	1.248736e-05	5.189597e-05	1.273294e-05	4.885344e-06	
22.778783	1.241032e-05	5.126352e-05	1.275140e-05	4.875681e-06	
22.779784	1.233295e-05	5.063869e-05	1.276863e-05	4.868740e-06	
22.780785	1.225532e-05	5.002186e-05	1.278454e-05	4.864371e-06	
22.781786	1.217752e-05	4.941342e-05	1.279905e-05	4.862426e-06	
22.782787	1.209961e-05	4.881376e-05	1.281206e-05	4.862755e-06	
22.783788	1.202169e-05	4.822326e-05	1.282348e-05	4.865211e-06	
22.784789	1.194383e-05	4.764230e-05	1.283321e-05	4.869643e-06	
22.785789	1.186611e-05	4.707128e-05	1.284117e-05	4.875903e-06	
22.786790	1.178860e-05	4.651057e-05	1.284725e-05	4.883842e-06	
22.787791	1.171140e-05	4.596057e-05	1.285138e-05	4.893311e-06	
22.788792	1.163457e-05	4.542165e-05	1.285345e-05	4.904161e-06	
22.789793	1.155819e-05	4.489421e-05	1.285337e-05	4.916244e-06	
22.790794	1.148235e-05	4.437862e-05	1.285106e-05	4.929410e-06	
22.791795	1.140712e-05	4.387528e-05	1.284642e-05	4.943511e-06	
22.792796	1.133258e-05	4.338457e-05	1.283935e-05	4.958398e-06	
22.793796	1.125882e-05	4.290687e-05	1.282977e-05	4.973921e-06	
22.794797	1.118590e-05	4.244258e-05	1.281758e-05	4.989932e-06	
22.795798	1.111391e-05	4.199207e-05	1.280270e-05	5.006282e-06	
22.796799	1.104293e-05	4.155574e-05	1.278502e-05	5.022821e-06	
22.797800	1.097304e-05	4.113396e-05	1.276445e-05	5.039402e-06	
22.798801	1.090431e-05	4.072712e-05	1.274092e-05	5.055876e-06	
22.799802	1.083683e-05	4.033561e-05	1.271431e-05	5.072092e-06	
22.800802	1.077067e-05	3.995982e-05	1.268454e-05	5.087903e-06	
22.801803	1.070591e-05	3.960012e-05	1.265151e-05	5.103159e-06	
22.802804	1.064264e-05	3.925691e-05	1.261515e-05	5.117712e-06	
22.803805	1.058092e-05	3.893057e-05	1.257534e-05	5.131413e-06	
22.804806	1.052085e-05	3.862149e-05	1.253200e-05	5.144112e-06	
22.805807	1.046249e-05	3.833004e-05	1.248505e-05	5.155661e-06	
22.806808	1.040593e-05	3.805663e-05	1.243437e-05	5.165912e-06	
22.807808	1.035124e-05	3.780162e-05	1.237989e-05	5.174714e-06	
22.808809	1.029851e-05	3.756542e-05	1.232151e-05	5.181919e-06	
22.809810	1.024782e-05	3.734839e-05	1.225914e-05	5.187379e-06	
22.810811	1.019923e-05	3.715094e-05	1.219269e-05	5.190944e-06	
22.811812	1.015284e-05	3.697343e-05	1.212205e-05	5.192465e-06	
22.812813	1.010872e-05	3.681627e-05	1.204715e-05	5.191794e-06	
22.813814	1.006695e-05	3.667983e-05	1.196789e-05	5.188782e-06	
22.814814	1.002761e-05	3.656451e-05	1.188418e-05	5.183279e-06	
22.815815	9.990780e-06	3.647068e-05	1.179592e-05	5.175137e-06	
22.816816	9.956533e-06	3.639873e-05	1.170303e-05	5.164207e-06	
22.817817	9.924952e-06	3.634905e-05	1.160540e-05	5.150340e-06	
22.818818	9.896116e-06	3.632202e-05	1.150295e-05	5.133387e-06	
22.819819	9.870103e-06	3.631803e-05	1.139559e-05	5.113200e-06	
22.820820	9.846992e-06	3.633746e-05	1.128322e-05	5.089628e-06	
22.821821	9.826863e-06	3.638070e-05	1.116575e-05	5.062524e-06	
22.822821	9.809794e-06	3.644813e-05	1.104309e-05	5.031739e-06	
22.823822	9.795865e-06	3.654015e-05	1.091515e-05	4.997123e-06	
22.824823	9.785153e-06	3.665712e-05	1.078183e-05	4.958530e-06	
22.825824	9.777662e-06	3.679898e-05	1.064327e-05	4.916009e-06	
22.826825	9.773277e-06	3.696491e-05	1.049998e-05	4.869919e-06	
22.827826	9.771874e-06	3.715406e-05	1.035246e-05	4.820647e-06	
22.828827	9.773326e-06	3.736553e-05	1.020126e-05	4.768583e-06	
22.829827	9.777508e-06	3.759847e-05	1.004689e-05	4.714115e-06	
22.830828	9.784295e-06	3.785200e-05	9.889894e-06	4.657630e-06	
22.831829	9.793560e-06	3.812526e-05	9.730787e-06	4.599516e-06	
22.832830	9.805178e-06	3.841735e-05	9.570101e-06	4.540163e-06	
22.833831	9.819024e-06	3.872743e-05	9.408363e-06	4.479958e-06	
22.834832	9.834972e-06	3.905460e-05	9.246099e-06	4.419290e-06	
22.835833	9.852897e-06	3.939801e-05	9.083837e-06	4.358546e-06	
22.836833	9.872673e-06	3.975678e-05	8.922105e-06	4.298115e-06	
22.837834	9.894174e-06	4.013003e-05	8.761430e-06	4.238384e-06	
22.838835	9.917275e-06	4.051690e-05	8.602340e-06	4.179743e-06	
22.839836	9.941850e-06	4.091652e-05	8.445360e-06	4.122579e-06	
22.840837	9.967774e-06	4.132801e-05	8.291020e-06	4.067281e-06	
22.841838	9.994921e-06	4.175049e-05	8.139846e-06	4.014236e-06	
22.842839	1.002317e-05	4.218311e-05	7.992365e-06	3.963833e-06	
22.843840	1.005238e-05	4.262498e-05	7.849105e-06	3.916460e-06	
22.844840	1.008245e-05	4.307523e-05	7.710593e-06	3.872506e-06	
22.845841	1.011323e-05	4.353300e-05	7.577357e-06	3.832358e-06	
22.846842	1.014461e-05	4.399741e-05	7.449924e-06	3.796404e-06	
22.847843	1.017646e-05	4.446759e-05	7.328820e-06	3.765033e-06	
22.848844	1.020865e-05	4.494266e-05	7.214574e-06	3.738634e-06	
22.849845	1.024107e-05	4.542176e-05	7.107713e-06	3.717593e-06	
22.850846	1.027357e-05	4.590401e-05	7.008764e-06	3.702300e-06	
22.851846	1.030604e-05	4.638854e-05	6.918254e-06	3.693142e-06	
22.852847	1.033836e-05	4.687448e-05	6.836712e-06	3.690508e-06	
22.853848	1.037039e-05	4.736096e-05	6.764663e-06	3.694786e-06	
22.854849	1.040201e-05	4.784710e-05	6.702635e-06	3.706364e-06	
22.855850	1.043310e-05	4.833204e-05	6.651156e-06	3.725630e-06	
22.856851	1.046353e-05	4.881489e-05	6.610754e-06	3.752973e-06	
22.857852	1.049317e-05	4.929480e-05	6.581954e-06	3.788780e-06	
22.858852	1.052190e-05	4.977089e-05	6.565285e-06	3.833440e-06	
22.859853	1.054959e-05	5.024228e-05	6.561274e-06	3.887341e-06	
22.860854	1.057613e-05	5.070810e-05	6.570449e-06	3.950872e-06	
22.861855	1.060137e-05	5.116748e-05	6.593336e-06	4.024419e-06	
22.862856	1.062520e-05	5.161956e-05	6.630463e-06	4.108373e-06	
22.863857	1.064749e-05	5.206345e-05	6.682358e-06	4.203120e-06	
22.864858	1.066812e-05	5.249829e-05	6.749546e-06	4.309049e-06	
22.865858	1.068695e-05	5.292321e-05	6.832557e-06	4.426548e-06	
22.866859	1.070387e-05	5.333732e-05	6.931917e-06	4.556005e-06	
22.867860	1.071875e-05	5.373977e-05	7.048154e-06	4.697809e-06	
22.868861	1.073146e-05	5.412967e-05	7.181795e-06	4.852348e-06	
22.869862	1.074188e-05	5.450616e-05	7.333366e-06	5.020010e-06	
22.870863	1.074988e-05	5.486837e-05	7.503397e-06	5.201182e-06	
22.871864	1.075534e-05	5.521542e-05	7.692413e-06	5.396254e-06	
22.872865	1.075813e-05	5.554643e-05	7.900942e-06	5.605613e-06	
22.873865	1.075812e-05	5.586055e-05	8.129512e-06	5.829648e-06	
22.874866	1.075519e-05	5.615691e-05	8.378638e-06	6.068739e-06	
22.875867	1.074934e-05	5.643529e-05	8.648260e-06	6.322914e-06	
22.876868	1.074070e-05	5.669638e-05	8.937491e-06	6.591691e-06	
22.877869	1.072943e-05	5.694095e-05	9.245378e-06	6.874547e-06	
22.878870	1.071570e-05	5.716977e-05	9.570969e-06	7.170961e-06	
22.879871	1.069966e-05	5.738360e-05	9.913312e-06	7.480411e-06	
22.880871	1.068147e-05	5.758322e-05	1.027145e-05	7.802375e-06	
22.881872	1.066129e-05	5.776938e-05	1.064445e-05	8.136332e-06	
22.882873	1.063927e-05	5.794286e-05	1.103133e-05	8.481760e-06	
22.883874	1.061558e-05	5.810443e-05	1.143116e-05	8.838137e-06	
22.884875	1.059038e-05	5.825484e-05	1.184298e-05	9.204942e-06	
22.885876	1.056382e-05	5.839487e-05	1.226584e-05	9.581652e-06	
22.886877	1.053606e-05	5.852528e-05	1.269879e-05	9.967746e-06	
22.887877	1.050727e-05	5.864685e-05	1.314088e-05	1.036270e-05	
22.888878	1.047759e-05	5.876033e-05	1.359114e-05	1.076600e-05	
22.889879	1.044719e-05	5.886649e-05	1.404864e-05	1.117711e-05	
22.890880	1.041623e-05	5.896611e-05	1.451242e-05	1.159552e-05	
22.891881	1.038486e-05	5.905994e-05	1.498152e-05	1.202071e-05	
22.892882	1.035325e-05	5.914876e-05	1.545500e-05	1.245215e-05	
22.893883	1.032155e-05	5.923333e-05	1.593190e-05	1.288932e-05	
22.894884	1.028993e-05	5.931442e-05	1.641127e-05	1.333171e-05	
22.895884	1.025853e-05	5.939279e-05	1.689215e-05	1.377878e-05	
22.896885	1.022752e-05	5.946922e-05	1.737361e-05	1.423001e-05	
22.897886	1.019706e-05	5.954447e-05	1.785468e-05	1.468489e-05	
22.898887	1.016731e-05	5.961930e-05	1.833441e-05	1.514290e-05	
22.899888	1.013842e-05	5.969449e-05	1.881185e-05	1.560350e-05	
22.900889	1.011056e-05	5.977080e-05	1.928605e-05	1.606618e-05	
22.901890	1.008388e-05	5.984899e-05	1.975605e-05	1.653043e-05	
22.902890	1.005854e-05	5.992984e-05	2.022091e-05	1.699570e-05	
22.903891	1.003470e-05	6.001411e-05	2.067967e-05	1.746150e-05	
22.904892	1.001251e-05	6.010257e-05	2.113138e-05	1.792728e-05	
22.905893	9.992148e-06	6.019598e-05	2.157508e-05	1.839253e-05	
22.906894	9.973758e-06	6.029511e-05	2.200983e-05	1.885674e-05	
22.907895	9.957503e-06	6.040074e-05	2.243467e-05	1.931937e-05	
22.908896	9.943541e-06	6.051362e-05	2.284866e-05	1.977990e-05	
22.909896	9.932031e-06	6.063452e-05	2.325083e-05	2.023782e-05	
22.910897	9.923131e-06	6.076421e-05	2.364024e-05	2.069260e-05	
22.911898	9.917000e-06	6.090345e-05	2.401593e-05	2.114373e-05	
22.912899	9.913798e-06	6.105302e-05	2.437696e-05	2.159066e-05	
22.913900	9.913682e-06	6.121369e-05	2.472237e-05	2.203290e-05	
22.914901	9.916811e-06	6.138620e-05	2.505120e-05	2.246991e-05	
22.915902	9.923344e-06	6.157135e-05	2.536251e-05	2.290118e-05	
22.916903	9.933439e-06	6.176988e-05	2.565535e-05	2.332617e-05	
22.917903	9.947256e-06	6.198257e-05	2.592875e-05	2.374438e-05	
22.918904	9.964952e-06	6.221019e-05	2.618178e-05	2.415527e-05	
22.919905	9.986687e-06	6.245349e-05	2.641347e-05	2.455833e-05	
22.920906	1.001262e-05	6.271326e-05	2.662288e-05	2.495303e-05	
22.921907	1.004291e-05	6.299025e-05	2.680905e-05	2.533886e-05	
22.922908	1.007771e-05	6.328523e-05	2.697104e-05	2.571528e-05	
22.923909	1.011719e-05	6.359898e-05	2.710788e-05	2.608179e-05	
22.924909	1.016149e-05	6.393223e-05	2.721865e-05	2.643786e-05	
22.925910	1.021066e-05	6.428492e-05	2.730313e-05	2.678312e-05	
22.926911	1.026455e-05	6.465597e-05	2.736203e-05	2.711744e-05	
22.927912	1.032303e-05	6.504420e-05	2.739611e-05	2.744065e-05	
22.928913	1.038596e-05	6.544846e-05	2.740614e-05	2.775262e-05	
22.929914	1.045319e-05	6.586759e-05	2.739289e-05	2.805321e-05	
22.930915	1.052459e-05	6.630042e-05	2.735713e-05	2.834226e-05	
22.931915	1.060002e-05	6.674580e-05	2.729962e-05	2.861964e-05	
22.932916	1.067933e-05	6.720255e-05	2.722113e-05	2.888520e-05	
22.933917	1.076238e-05	6.766952e-05	2.712243e-05	2.913880e-05	
22.934918	1.084903e-05	6.814555e-05	2.700428e-05	2.938030e-05	
22.935919	1.093915e-05	6.862947e-05	2.686745e-05	2.960954e-05	
22.936920	1.103259e-05	6.912013e-05	2.671271e-05	2.982640e-05	
22.937921	1.112921e-05	6.961636e-05	2.654083e-05	3.003071e-05	
22.938921	1.122887e-05	7.011699e-05	2.635257e-05	3.022234e-05	
22.939922	1.133142e-05	7.062088e-05	2.614869e-05	3.040115e-05	
22.940923	1.143674e-05	7.112685e-05	2.592997e-05	3.056699e-05	
22.941924	1.154467e-05	7.163374e-05	2.569718e-05	3.071972e-05	
22.942925	1.165508e-05	7.214039e-05	2.545108e-05	3.085920e-05	
22.943926	1.176783e-05	7.264565e-05	2.519243e-05	3.098527e-05	
22.944927	1.188277e-05	7.314834e-05	2.492201e-05	3.109780e-05	
22.945928	1.199977e-05	7.364730e-05	2.464058e-05	3.119664e-05	
22.946928	1.211867e-05	7.414139e-05	2.434891e-05	3.128165e-05	
22.947929	1.223936e-05	7.462942e-05	2.404776e-05	3.135269e-05	
22.948930	1.236167e-05	7.511025e-05	2.373791e-05	3.140961e-05	
22.949931	1.248548e-05	7.558270e-05	2.342011e-05	3.145226e-05	
22.950932	1.261063e-05	7.604562e-05	2.309515e-05	3.148051e-05	
22.951933	1.273700e-05	7.649785e-05	2.276378e-05	3.149421e-05	
22.952934	1.286443e-05	7.693822e-05	2.242676e-05	3.149321e-05	
22.953934	1.299280e-05	7.736557e-05	2.208488e-05	3.147738e-05	
22.954935	1.312195e-05	7.777874e-05	2.173889e-05	3.144657e-05	
22.955936	1.325175e-05	7.817657e-05	2.138957e-05	3.140063e-05	
22.956937	1.338205e-05	7.855789e-05	2.103767e-05	3.133942e-05	
22.957938	1.351272e-05	7.892155e-05	2.068397e-05	3.126280e-05	
22.958939	1.364361e-05	7.926638e-05	2.032923e-05	3.117062e-05	
22.959940	1.377459e-05	7.959122e-05	1.997422e-05	3.106274e-05	
22.960940	1.390551e-05	7.989491e-05	1.961971e-05	3.093902e-05	
22.961941	1.403624e-05	8.017628e-05	1.926647e-05	3.079931e-05	
22.962942	1.416662e-05	8.043418e-05	1.891525e-05	3.064347e-05	
22.963943	1.429653e-05	8.066745e-05	1.856684e-05	3.047135e-05	
22.964944	1.442581e-05	8.087491e-05	1.822199e-05	3.028282e-05	
22.965945	1.455434e-05	8.105542e-05	1.788147e-05	3.007772e-05	
22.966946	1.468196e-05	8.120780e-05	1.754605e-05	2.985591e-05	
22.967947	1.480855e-05	8.133089e-05	1.721650e-05	2.961725e-05	
22.968947	1.493394e-05	8.142354e-05	1.689359e-05	2.936160e-05	
22.969948	1.505802e-05	8.148459e-05	1.657807e-05	2.908881e-05	
22.970949	1.518063e-05	8.151286e-05	1.627072e-05	2.879874e-05	
22.971950	1.530164e-05	8.150720e-05	1.597231e-05	2.849124e-05	
22.972951	1.542089e-05	8.146645e-05	1.568360e-05	2.816618e-05	
22.973952	1.553827e-05	8.138944e-05	1.540536e-05	2.782340e-05	
22.974953	1.565362e-05	8.127507e-05	1.513834e-05	2.746278e-05	
22.975953	1.576705e-05	8.112403e-05	1.488298e-05	2.708476e-05	
22.976954	1.587892e-05	8.093902e-05	1.463930e-05	2.669042e-05	
22.977955	1.598962e-05	8.072290e-05	1.440733e-05	2.628087e-05	
22.978956	1.609950e-05	8.047849e-05	1.418709e-05	2.585724e-05	
22.979957	1.620896e-05	8.020862e-05	1.397860e-05	2.542063e-05	
22.980958	1.631837e-05	7.991614e-05	1.378188e-05	2.497217e-05	
22.981959	1.642811e-05	7.960386e-05	1.359696e-05	2.451297e-05	
22.982959	1.653856e-05	7.927464e-05	1.342384e-05	2.404415e-05	
22.983960	1.665008e-05	7.893129e-05	1.326256e-05	2.356682e-05	
22.984961	1.676307e-05	7.857666e-05	1.311313e-05	2.308210e-05	
22.985962	1.687790e-05	7.821358e-05	1.297557e-05	2.259110e-05	
22.986963	1.699494e-05	7.784489e-05	1.284991e-05	2.209495e-05	
22.987964	1.711457e-05	7.747341e-05	1.273616e-05	2.159475e-05	
22.988965	1.723717e-05	7.710198e-05	1.263434e-05	2.109163e-05	
22.989965	1.736312e-05	7.673344e-05	1.254448e-05	2.058670e-05	
22.990966	1.749279e-05	7.637062e-05	1.246659e-05	2.008108e-05	
22.991967	1.762657e-05	7.601636e-05	1.240070e-05	1.957588e-05	
22.992968	1.776483e-05	7.567348e-05	1.234682e-05	1.907222e-05	
22.993969	1.790794e-05	7.534482e-05	1.230497e-05	1.857121e-05	
22.994970	1.805628e-05	7.503322e-05	1.227519e-05	1.807398e-05	
22.995971	1.821024e-05	7.474151e-05	1.225748e-05	1.758164e-05	
22.996972	1.837019e-05	7.447252e-05	1.225186e-05	1.709530e-05	
22.997972	1.853650e-05	7.422909e-05	1.225837e-05	1.661608e-05	
22.998973	1.870956e-05	7.401405e-05	1.227701e-05	1.614510e-05	
22.999974	1.888973e-05	7.383024e-05	1.230780e-05	1.568347e-05	
23.000975	1.907741e-05	7.368048e-05	1.235078e-05	1.523231e-05	
23.001976	1.927296e-05	7.356762e-05	1.240596e-05	1.479274e-05	
23.002977	1.947676e-05	7.349449e-05	1.247335e-05	1.436587e-05	
23.003978	1.968920e-05	7.346392e-05	1.255298e-05	1.395281e-05	
23.004978	1.991064e-05	7.347875e-05	1.264487e-05	1.355470e-05	
23.005979	2.014147e-05	7.354181e-05	1.274905e-05	1.317263e-05	
23.006980	2.038206e-05	7.365593e-05	1.286552e-05	1.280773e-05	
23.007981	2.063280e-05	7.382395e-05	1.299431e-05	1.246111e-05	
23.008982	2.089404e-05	7.404870e-05	1.313545e-05	1.213390e-05	
23.009983	2.116619e-05	7.433301e-05	1.328894e-05	1.182720e-05	
23.010984	2.144960e-05	7.467973e-05	1.345482e-05	1.154213e-05	
23.011984	2.174467e-05	7.509168e-05	1.363310e-05	1.127981e-05	
23.012985	2.205176e-05	7.557170e-05	1.382380e-05	1.104135e-05	
23.013986	2.237126e-05	7.612262e-05	1.402694e-05	1.082788e-05	
23.014987	2.270354e-05	7.674728e-05	1.424255e-05	1.064050e-05	
23.015988	2.304898e-05	7.744851e-05	1.447064e-05	1.048034e-05	
23.016989	2.340795e-05	7.822914e-05	1.471124e-05	1.034850e-05	
23.017990	2.378084e-05	7.909201e-05	1.496436e-05	1.024611e-05	
23.018991	2.416802e-05	8.003995e-05	1.523002e-05	1.017429e-05	
23.019991	2.456987e-05	8.107580e-05	1.550825e-05	1.013414e-05	
23.020992	2.498677e-05	8.220239e-05	1.579907e-05	1.012679e-05	
23.021993	2.541909e-05	8.342255e-05	1.610249e-05	1.015335e-05	
23.022994	2.586721e-05	8.473912e-05	1.641853e-05	1.021493e-05	
23.023995	2.633151e-05	8.615493e-05	1.674723e-05	1.031266e-05	
23.024996	2.681233e-05	8.767269e-05	1.708857e-05	1.044760e-05	
23.025997	2.730934e-05	8.929197e-05	1.744220e-05	1.061957e-05	
23.026997	2.782146e-05	9.100912e-05	1.780737e-05	1.082711e-05	
23.027998	2.834761e-05	9.282038e-05	1.818332e-05	1.106872e-05	
23.028999	2.888670e-05	9.472194e-05	1.856929e-05	1.134287e-05	
23.030000	2.943763e-05	9.671004e-05	1.896452e-05	1.164807e-05	
