X [s]	1 Gast Med [V]	2 T Ant [V]	3 R Fem [V]	4 B Fem [V]	
15.860000	7.575940e-06	-4.788364e-05	-4.983725e-07	7.555439e-06	
15.861001	2.045989e-06	-1.278886e-04	-1.394416e-06	-2.260875e-06	
15.862002	-4.677515e-06	-1.047740e-04	-3.803528e-06	-1.346213e-05	
15.863003	-1.331286e-05	-5.236449e-05	-5.843804e-06	-1.409958e-05	
15.864004	-1.666475e-05	-2.573452e-05	-7.155800e-06	-1.239993e-05	
15.865005	-4.530035e-06	1.482692e-05	-5.837339e-06	-1.738029e-05	
15.866006	6.214721e-06	7.413089e-06	-2.406418e-06	-1.218740e-05	
15.867007	1.047329e-05	-1.861293e-05	2.309580e-06	5.855796e-08	
15.868008	9.400942e-06	6.017192e-05	5.000072e-06	4.100134e-06	
15.869009	7.275929e-07	8.659470e-05	2.620810e-06	-8.458624e-07	
15.870010	-4.932379e-06	-1.496281e-05	-3.254365e-07	-3.018935e-06	
15.871010	-1.861569e-06	-7.598178e-05	-6.824504e-07	1.308130e-05	
15.872011	1.217988e-05	-4.048028e-05	-8.355860e-07	2.544085e-05	
15.873012	1.507032e-05	4.825994e-05	-3.562752e-06	1.718290e-05	
15.874013	-2.478606e-06	9.818096e-05	-1.530040e-07	9.249069e-06	
15.875014	-1.026771e-05	1.001865e-04	9.633364e-06	6.542119e-06	
15.876015	-7.710391e-06	1.025186e-04	9.219613e-06	4.724398e-06	
15.877016	-1.820896e-06	3.665196e-05	5.988019e-06	4.474466e-06	
15.878017	5.258447e-06	-2.735917e-05	7.713993e-06	4.909377e-06	
15.879018	4.079217e-06	-1.228203e-05	2.908386e-06	2.153810e-06	
15.880019	5.188146e-06	-2.815955e-05	-2.991085e-06	-6.796044e-06	
15.881020	9.159622e-06	-1.428042e-05	-3.684140e-06	-8.838139e-06	
15.882021	5.440297e-06	5.774736e-05	-2.862636e-06	-3.684621e-06	
15.883022	-1.903834e-06	5.132432e-05	-2.436813e-06	-4.361788e-06	
15.884023	-1.206378e-06	3.093915e-05	-3.512395e-06	-6.156446e-06	
15.885024	4.035103e-06	5.151440e-05	-2.010921e-06	-1.066551e-05	
15.886025	2.954277e-07	3.105035e-05	-1.242350e-06	-1.410123e-05	
15.887026	-2.172986e-06	2.290642e-08	-4.433355e-06	-4.360822e-06	
15.888027	-1.977561e-06	4.351846e-06	-3.154616e-06	1.388471e-06	
15.889028	-6.403173e-06	-2.056319e-05	1.891934e-06	-1.797529e-06	
15.890029	-1.730343e-06	-8.272049e-05	4.583086e-06	-2.157276e-06	
15.891030	5.801920e-06	-1.059271e-04	3.352855e-06	-4.649782e-06	
15.892031	8.786823e-06	-1.004672e-04	-5.104088e-06	-8.040176e-06	
15.893031	8.309591e-06	-9.826457e-05	-1.181965e-05	-8.699993e-06	
15.894032	7.754137e-06	-9.432721e-05	-6.585578e-06	-2.996757e-06	
15.895033	1.229788e-05	-8.968199e-05	-2.670712e-06	8.241838e-06	
15.896034	-1.251074e-05	-7.480666e-05	-3.904334e-06	1.120980e-05	
15.897035	-4.083169e-05	-6.679332e-05	-5.035321e-06	5.842662e-06	
15.898036	-2.452890e-05	-3.456496e-05	-1.477423e-05	-3.285827e-07	
15.899037	-1.271594e-05	2.991474e-05	-1.988235e-05	-4.499625e-06	
15.900038	-1.381093e-05	4.107558e-05	-3.936886e-06	-2.268831e-06	
15.901039	-5.129872e-06	4.629501e-05	1.788185e-05	5.797686e-06	
15.902040	-5.454528e-07	8.906790e-05	2.981788e-05	1.083868e-05	
15.903041	2.760276e-08	9.970353e-05	2.549954e-05	7.163385e-06	
15.904042	-5.203727e-06	1.227031e-04	1.376399e-05	4.182504e-06	
15.905043	-6.885075e-06	1.024553e-04	8.588232e-06	6.246745e-06	
15.906044	-3.695461e-06	-1.769502e-05	3.960820e-06	4.176337e-06	
15.907045	-3.518352e-06	-4.022890e-05	-7.944175e-07	1.907725e-07	
15.908046	3.780026e-06	-2.667719e-05	-3.279974e-06	3.331351e-06	
15.909047	9.854451e-06	-5.975779e-05	-5.897861e-06	6.343961e-06	
15.910048	6.292942e-06	4.214890e-05	-2.556236e-06	1.733399e-06	
15.911049	2.408859e-06	1.282119e-04	1.238546e-07	-8.797717e-07	
15.912050	9.050128e-06	4.719245e-05	-1.703797e-06	2.738864e-07	
15.913051	2.070892e-05	-2.711127e-05	-9.974087e-07	7.698758e-08	
15.914051	1.983330e-05	-3.349446e-05	-2.739010e-06	2.970996e-07	
15.915052	1.379771e-05	-2.688260e-05	-4.924804e-06	-1.929160e-06	
15.916053	1.241607e-05	-1.968280e-05	-2.327458e-06	-2.990300e-06	
15.917054	1.682903e-05	-6.447630e-06	-1.644369e-06	8.864013e-07	
15.918055	2.007560e-05	3.889810e-06	-4.169445e-06	-2.012678e-06	
15.919056	8.179885e-06	7.420880e-06	-3.999122e-06	-1.067160e-05	
15.920057	4.197918e-06	5.064557e-06	-2.438250e-06	-1.247562e-05	
15.921058	6.728101e-06	-7.520391e-06	-6.298627e-09	-6.621558e-06	
15.922059	-1.606722e-05	-1.416083e-05	4.769904e-06	7.888392e-08	
15.923060	-3.237179e-05	-5.968447e-06	4.727728e-06	3.488172e-06	
15.924061	-1.979420e-05	1.483118e-07	3.753576e-06	6.940954e-06	
15.925062	-4.296336e-06	2.714927e-06	4.580188e-06	6.051611e-06	
15.926063	8.822802e-07	1.174325e-05	1.330146e-06	-8.800981e-07	
15.927064	-6.325391e-07	7.434599e-06	-2.000523e-06	-5.697459e-06	
15.928065	1.074391e-05	-5.697662e-07	-6.582051e-06	-1.038080e-05	
15.929066	1.469900e-05	5.253170e-06	-9.641108e-06	-1.004696e-05	
15.930067	-1.751555e-05	1.156206e-06	-7.529538e-06	-4.853446e-06	
15.931068	-3.375862e-05	-2.434123e-06	-3.612878e-06	-5.286839e-06	
15.932069	-1.072364e-05	-2.188580e-06	-7.318639e-07	-3.676844e-06	
15.933070	7.220025e-06	-7.885134e-06	-4.189462e-06	2.682498e-06	
15.934071	1.075195e-05	-7.233510e-06	-4.519851e-06	7.860280e-06	
15.935071	1.262233e-05	-5.867403e-06	1.208058e-06	9.651726e-06	
15.936072	6.928843e-06	-1.912495e-06	3.311562e-06	3.318123e-06	
15.937073	3.116058e-07	1.672485e-06	5.197937e-06	-3.288590e-06	
15.938074	1.190012e-05	-5.793060e-06	5.199387e-06	-2.319035e-06	
15.939075	2.389479e-05	-1.234447e-05	9.373106e-08	-1.344259e-06	
15.940076	1.215973e-05	-1.259023e-05	-3.459529e-06	1.776859e-07	
15.941077	-1.303890e-05	-1.428756e-05	-1.942347e-06	4.706234e-06	
15.942078	-1.948650e-05	-1.646886e-05	4.478987e-06	6.520670e-06	
15.943079	-1.517036e-06	-1.335902e-05	1.041434e-05	6.624349e-06	
15.944080	-9.444366e-06	-8.808239e-06	8.940322e-06	4.838380e-06	
15.945081	-2.583728e-05	-4.099163e-06	5.094256e-06	3.653395e-06	
15.946082	-1.263120e-05	2.758746e-06	3.199445e-06	4.984116e-06	
15.947083	-2.697401e-06	2.074194e-06	1.354236e-06	1.766901e-06	
15.948084	1.244409e-05	-6.682327e-06	7.577248e-07	-2.227537e-06	
15.949085	1.579227e-06	-6.918353e-06	-9.673352e-07	-4.024919e-06	
15.950086	-4.320746e-05	-3.693747e-06	-2.008546e-06	-2.894238e-06	
15.951087	-4.469697e-06	-8.909008e-06	-1.320555e-06	1.072161e-06	
15.952088	5.384518e-05	-8.128583e-06	-2.356373e-06	5.097027e-07	
15.953089	8.504058e-06	-4.279272e-06	-1.428677e-07	-1.193693e-06	
15.954090	-1.000118e-05	-9.796168e-06	1.093550e-06	-1.085756e-06	
15.955091	8.532002e-06	-1.414240e-05	-2.875552e-06	1.904367e-06	
15.956092	-3.879245e-05	-1.233188e-05	-4.193259e-06	4.616743e-06	
15.957092	-2.039768e-05	1.474407e-06	-6.688973e-06	1.004034e-07	
15.958093	3.636161e-05	2.386381e-05	-1.059137e-05	-2.666790e-06	
15.959094	-6.411321e-06	2.840142e-05	-1.002269e-05	-1.371635e-06	
15.960095	-4.014171e-05	1.859430e-05	-9.838741e-06	4.918333e-07	
15.961096	-3.114093e-05	1.331695e-05	-7.054331e-06	1.646563e-06	
15.962097	-2.233381e-05	9.322969e-06	-2.814148e-06	-2.335351e-06	
15.963098	-4.039633e-07	7.308086e-06	-8.112630e-07	-3.596689e-06	
15.964099	1.597748e-05	4.051422e-06	7.285707e-06	-1.160424e-06	
15.965100	3.357345e-05	5.592602e-07	1.451194e-05	-7.976573e-07	
15.966101	5.912108e-05	4.500512e-06	1.558045e-05	-5.563490e-07	
15.967102	6.366541e-05	2.258146e-06	1.399177e-05	-1.980014e-06	
15.968103	3.603976e-05	-1.286269e-06	5.575776e-06	-2.741041e-06	
15.969104	5.395677e-05	6.159637e-06	3.031763e-09	-2.040391e-06	
15.970105	8.189117e-05	8.475897e-06	1.085670e-06	-7.760507e-07	
15.971106	-1.097837e-05	4.607105e-06	-1.364055e-06	5.751316e-07	
15.972107	-8.077291e-05	6.898067e-06	-1.311891e-06	-1.703267e-06	
15.973108	-2.555088e-05	1.429725e-05	1.310687e-06	-2.274246e-06	
15.974109	1.530718e-05	2.165439e-05	-7.444386e-07	-2.264506e-06	
15.975110	2.016210e-06	2.379051e-05	-4.178366e-07	-5.600724e-06	
15.976111	-3.734015e-05	2.125107e-05	3.054537e-07	-4.363628e-06	
15.977112	-6.319602e-05	1.591985e-05	-1.920242e-06	2.331640e-06	
15.978112	-4.552634e-05	6.934527e-06	-3.082936e-06	3.540560e-06	
15.979113	-3.981285e-05	8.609780e-07	-4.423690e-06	-2.192492e-06	
15.980114	-4.005061e-05	-4.450473e-06	-2.844971e-06	-1.117435e-06	
15.981115	-6.655093e-06	-1.267915e-05	-1.228670e-06	3.545505e-06	
15.982116	1.293059e-05	-1.242940e-05	-1.897601e-06	3.354147e-06	
15.983117	3.218710e-06	-9.452683e-06	-1.148093e-06	1.617824e-06	
15.984118	2.584510e-06	-1.201931e-05	-1.525405e-06	-6.813524e-07	
15.985119	1.210512e-05	-1.261794e-05	2.451461e-07	2.477249e-06	
15.986120	1.758373e-05	-1.346032e-05	2.488693e-06	5.111049e-06	
15.987121	1.743918e-05	-1.544350e-05	2.558907e-06	1.993449e-06	
15.988122	1.440803e-05	-1.741815e-05	4.536749e-06	8.552910e-07	
15.989123	1.224089e-05	-1.827671e-05	1.365239e-06	-4.157737e-07	
15.990124	4.245354e-06	-1.464823e-05	-2.194053e-06	2.749987e-06	
15.991125	-5.091653e-08	-1.309886e-05	-5.978624e-08	8.418195e-06	
15.992126	4.389265e-06	-1.213294e-05	-4.456253e-06	3.153304e-06	
15.993127	-3.072027e-06	-9.636306e-06	-6.766199e-06	-2.227588e-06	
15.994128	2.012426e-05	-6.809666e-06	-2.181223e-06	1.276163e-06	
15.995129	5.549503e-05	3.772445e-06	-3.425699e-06	2.053384e-06	
15.996130	9.728689e-06	8.981045e-06	-2.294886e-06	7.722322e-07	
15.997131	-2.806964e-05	1.933773e-06	6.433264e-07	8.305736e-07	
15.998132	2.231533e-06	-6.979382e-07	-8.278699e-07	-1.048769e-06	
15.999133	3.448224e-06	-2.530990e-06	1.085356e-06	-1.187407e-06	
16.000133	-1.611868e-05	-5.084770e-06	2.538144e-06	-1.245593e-06	
16.001134	-1.891678e-05	-1.548083e-06	2.245213e-06	-2.112074e-06	
16.002135	-1.342749e-05	2.596240e-06	2.370664e-06	-2.189852e-06	
16.003136	-3.302657e-06	8.378663e-06	1.517803e-06	-4.373282e-06	
16.004137	-9.796714e-06	1.151030e-05	3.235569e-06	-3.708843e-06	
16.005138	-1.247294e-05	6.902714e-06	2.927553e-06	-5.770609e-07	
16.006139	-1.021309e-06	6.656529e-06	3.212981e-07	-1.464818e-06	
16.007140	-5.322593e-06	9.105372e-06	5.355952e-07	-1.664405e-06	
16.008141	-1.040408e-05	3.943719e-06	-3.389597e-07	1.228023e-06	
16.009142	-3.040712e-06	5.154056e-06	-1.114453e-06	1.033681e-06	
16.010143	-1.518040e-06	9.049310e-06	-2.275642e-06	-7.120120e-07	
16.011144	5.826162e-06	-1.443208e-06	-3.814368e-06	1.123476e-06	
16.012145	1.971175e-05	-3.936252e-06	-3.093122e-07	2.032765e-06	
16.013146	1.330840e-05	3.691421e-06	2.672889e-06	9.382800e-07	
16.014147	8.914774e-07	2.460542e-06	3.233501e-06	9.789739e-07	
16.015148	-2.132680e-05	-1.095129e-06	1.398049e-06	-1.494521e-06	
16.016149	-4.616646e-06	-4.374055e-06	-2.869200e-06	-6.768162e-06	
16.017150	9.127884e-05	-4.211178e-06	-7.639443e-07	-8.213279e-06	
16.018151	7.238750e-05	-3.120215e-06	1.277636e-06	-3.469782e-06	
16.019152	-4.356360e-05	-1.340816e-06	-1.068162e-06	-9.755852e-07	
16.020153	-5.394545e-05	5.199445e-06	-1.843760e-07	-4.259709e-06	
16.021153	-3.417801e-05	4.817930e-06	3.353113e-07	-4.585188e-06	
16.022154	2.803349e-05	2.480028e-06	1.303972e-07	1.084239e-06	
16.023155	1.066231e-04	-8.019534e-08	-1.262854e-06	6.981405e-06	
16.024156	5.153670e-05	-5.816196e-06	-2.381633e-06	7.135994e-06	
16.025157	-4.661962e-05	-2.686175e-06	1.504901e-06	2.368338e-06	
16.026158	-1.069439e-04	2.191169e-06	2.059346e-06	-1.071068e-06	
16.027159	-6.555667e-05	1.439755e-06	1.035412e-06	-9.659214e-07	
16.028160	2.738862e-05	-1.158855e-06	2.268659e-06	1.308436e-06	
16.029161	-2.233742e-06	-5.461910e-06	1.163952e-06	2.418657e-06	
16.030162	-4.134518e-05	-4.995286e-06	5.597190e-07	3.543951e-06	
16.031163	6.584651e-06	2.808818e-07	1.520497e-07	7.036262e-06	
16.032164	1.170601e-05	2.382152e-06	-5.221195e-08	5.803689e-06	
16.033165	-3.522756e-05	2.403472e-06	8.352539e-07	2.569589e-06	
16.034166	-3.524108e-05	3.898108e-06	2.398622e-06	1.595414e-06	
16.035167	-8.206848e-06	8.281754e-06	2.741958e-06	-3.534498e-07	
16.036168	3.022707e-06	1.084234e-05	-5.376839e-07	5.140437e-07	
16.037169	1.201594e-05	5.746216e-06	-7.207008e-07	-3.574914e-07	
16.038170	1.657425e-05	5.775540e-06	-5.994955e-07	-4.755105e-06	
16.039171	2.211149e-05	9.939654e-06	-3.357707e-06	-9.168835e-06	
16.040172	2.482609e-05	3.244563e-06	-3.030810e-06	-9.079580e-06	
16.041173	2.474863e-05	-9.671785e-07	-2.702320e-06	-3.123173e-07	
16.042173	8.141869e-06	3.478212e-07	-1.017799e-06	9.116899e-07	
16.043174	-1.660109e-05	-5.902069e-06	-1.759802e-07	-2.337587e-06	
16.044175	1.746540e-06	-1.130693e-05	-2.572742e-06	3.769309e-06	
16.045176	1.928611e-05	-1.341131e-05	-8.769340e-07	7.042307e-06	
16.046177	1.489297e-05	-2.027221e-05	-1.627829e-06	7.294411e-06	
16.047178	1.320053e-05	-1.983510e-05	-3.278229e-06	6.719954e-06	
16.048179	-1.600296e-05	-1.038947e-05	2.326687e-06	3.281871e-07	
16.049180	-2.738914e-05	-1.100868e-05	3.592073e-06	1.026477e-06	
16.050181	-6.536719e-06	-1.295540e-05	7.726410e-07	4.010404e-06	
16.051182	1.042243e-05	-3.296191e-06	3.112629e-06	-5.406266e-06	
16.052183	4.467822e-05	6.610304e-06	3.986971e-06	-6.186022e-06	
16.053184	3.841131e-05	8.508108e-06	2.227053e-06	2.468956e-06	
16.054185	-3.029513e-06	8.851747e-06	8.731786e-07	-3.924446e-06	
16.055186	-1.568153e-05	1.831797e-05	-1.931487e-06	-8.569246e-06	
16.056187	-3.779487e-05	2.298825e-05	-1.352201e-06	-1.067244e-06	
16.057188	-3.831172e-05	1.321531e-05	1.040833e-06	-2.683791e-07	
16.058189	-1.222073e-05	9.554536e-06	-2.676571e-06	-4.102489e-07	
16.059190	-7.330244e-06	1.034299e-05	-6.179972e-06	8.222840e-06	
16.060191	2.350711e-06	3.592578e-06	-3.282204e-06	1.416615e-05	
16.061192	1.450650e-06	-8.008547e-07	-2.552346e-06	1.094628e-05	
16.062193	-5.649485e-06	-2.166800e-06	-2.366845e-06	7.907029e-06	
16.063194	-1.803985e-06	-4.171417e-06	1.820226e-06	2.670688e-06	
16.064194	-8.490664e-06	-1.529528e-06	3.804111e-07	-1.552698e-05	
16.065195	-1.697596e-06	-1.824023e-06	-4.099563e-07	-2.805701e-05	
16.066196	1.106225e-05	-1.064284e-05	3.198545e-06	-2.267580e-05	
16.067197	2.585928e-05	-1.459261e-05	1.196160e-06	-1.554481e-05	
16.068198	4.602294e-05	-1.012979e-05	4.100419e-07	-1.405117e-05	
16.069199	4.478347e-05	-8.211820e-06	2.046847e-06	-7.519299e-06	
16.070200	7.443405e-05	-6.706870e-06	2.340723e-06	1.343861e-05	
16.071201	1.222863e-04	5.329351e-06	3.736842e-06	2.177022e-05	
16.072202	6.548339e-05	1.543379e-05	1.942754e-06	5.324043e-06	
16.073203	-8.618337e-05	1.005779e-05	8.118888e-07	-9.955157e-07	
16.074204	-1.668968e-04	4.634822e-06	1.195471e-06	5.083218e-06	
16.075205	-1.125353e-04	2.863044e-06	-2.080621e-06	7.432614e-06	
16.076206	-3.798345e-05	8.801885e-07	-1.515587e-06	7.630258e-06	
16.077207	-1.230656e-05	2.354540e-06	4.772437e-07	4.247675e-06	
16.078208	-2.021800e-05	3.699424e-07	-4.050792e-07	7.443722e-07	
16.079209	-2.040966e-05	-4.236330e-07	2.009579e-06	-7.267366e-07	
16.080210	1.514326e-06	8.574552e-07	5.050348e-07	-5.238455e-07	
16.081211	1.561154e-07	-6.954199e-06	-2.795200e-06	1.062175e-06	
16.082212	-4.944730e-06	-1.100876e-05	8.321499e-07	-1.598946e-06	
16.083213	9.760877e-06	-2.409472e-06	2.082332e-06	-4.242958e-06	
16.084214	1.427571e-05	-1.554691e-06	5.569077e-07	-2.924788e-06	
16.085214	1.513523e-05	-9.008019e-06	2.505534e-07	-1.443825e-06	
16.086215	1.726531e-05	-8.101178e-06	-1.258449e-08	-6.802575e-07	
16.087216	1.415543e-05	-5.960371e-06	1.780351e-06	-1.070739e-06	
16.088217	1.093313e-05	-5.338416e-06	1.778471e-06	3.070942e-06	
16.089218	6.507494e-06	-4.954867e-07	-1.001740e-06	6.329063e-06	
16.090219	5.798180e-06	4.941670e-06	-1.461519e-06	3.418862e-06	
16.091220	5.045391e-06	7.182107e-06	-5.720267e-07	1.079091e-05	
16.092221	5.390988e-06	5.822928e-06	-2.455279e-06	2.148313e-05	
16.093222	8.792451e-06	3.938717e-06	-5.502873e-06	1.993887e-05	
16.094223	-8.930915e-06	-2.548442e-07	-3.291358e-06	1.326682e-05	
16.095224	-2.067747e-05	-2.624933e-06	1.520583e-07	5.425214e-06	
16.096225	-4.858027e-06	-2.527963e-07	-2.471914e-06	-7.381208e-06	
16.097226	1.819269e-05	6.296991e-07	-1.554814e-06	-1.974285e-05	
16.098227	4.838861e-05	4.133711e-06	2.115339e-06	-9.938327e-06	
16.099228	3.866974e-05	6.437274e-06	-1.337827e-06	5.434575e-06	
16.100229	1.084648e-05	4.680115e-06	-2.351119e-06	-8.455181e-06	
16.101230	1.205928e-05	1.010865e-05	2.359352e-07	-2.230433e-05	
16.102231	-2.111861e-05	1.174296e-05	5.858663e-07	-1.021006e-05	
16.103232	-5.037111e-05	-1.547180e-06	2.338865e-06	9.455073e-06	
16.104233	-2.201850e-05	-1.085540e-05	5.694513e-07	1.635012e-05	
16.105234	9.304729e-06	-5.920293e-06	-3.262619e-06	-3.102028e-06	
16.106235	2.336064e-05	3.860307e-06	2.703621e-07	-2.784648e-05	
16.107235	2.202547e-05	1.092554e-05	3.402387e-06	-2.973947e-05	
16.108236	6.145315e-06	8.767191e-06	1.958411e-06	-1.875378e-05	
16.109237	-1.209408e-05	-5.783439e-07	1.720708e-06	-1.060404e-05	
16.110238	-3.245521e-06	-5.384160e-06	-6.562579e-07	-3.664746e-06	
16.111239	1.545275e-05	-8.028718e-06	-9.657527e-07	1.206471e-06	
16.112240	9.116210e-06	-1.233679e-05	3.647555e-06	-2.091381e-06	
16.113241	1.359286e-05	-9.057383e-06	3.026387e-06	1.234866e-06	
16.114242	2.013714e-05	-3.791441e-06	1.098700e-06	1.059246e-05	
16.115243	1.692095e-05	1.749191e-07	2.368624e-06	6.438063e-06	
16.116244	2.042450e-05	1.104544e-05	5.862272e-07	9.054495e-06	
16.117245	5.325445e-06	8.944191e-06	3.012411e-07	2.190961e-05	
16.118246	-4.385611e-05	-1.299232e-05	2.709801e-06	2.081333e-05	
16.119247	-1.184605e-04	-2.110769e-05	1.341275e-06	1.401940e-05	
16.120248	-1.333992e-04	-6.317105e-06	-5.956315e-07	9.402922e-07	
16.121249	-4.348055e-05	5.131594e-06	-2.923640e-06	-1.492434e-05	
16.122250	4.238492e-05	3.434233e-06	-5.231232e-06	-8.392647e-06	
16.123251	6.076291e-05	3.823003e-06	-1.678758e-06	5.604136e-06	
16.124252	4.056013e-05	5.514711e-06	-7.437386e-07	7.233093e-06	
16.125253	8.754846e-06	4.868040e-06	-4.227995e-06	4.094093e-06	
16.126254	1.009683e-05	1.483545e-05	-2.334949e-06	3.274504e-06	
16.127255	4.505706e-05	2.133665e-05	-5.505759e-07	1.139861e-05	
16.128255	3.554185e-05	7.986947e-06	-6.792354e-07	1.483414e-05	
16.129256	-1.577876e-05	-1.028484e-05	1.756888e-06	6.038245e-06	
16.130257	-3.251959e-05	-1.603781e-05	3.840379e-06	2.399053e-06	
16.131258	-2.598933e-05	7.915679e-06	3.995163e-06	-7.115384e-06	
16.132259	-3.136896e-05	3.944666e-05	2.446854e-06	-2.754097e-05	
16.133260	-2.201089e-05	1.961749e-05	1.106958e-06	-2.312604e-05	
16.134261	-5.392748e-07	-2.583820e-05	-5.272954e-07	3.590985e-06	
16.135262	2.048027e-06	-3.237737e-05	-2.077565e-06	9.458807e-06	
16.136263	2.816042e-06	-2.677823e-05	-2.172408e-07	-2.269776e-06	
16.137264	1.455339e-05	-2.927959e-05	9.511230e-07	-6.144986e-06	
16.138265	1.568241e-05	-1.629247e-05	-5.030115e-07	-2.641076e-06	
16.139266	1.225739e-05	-5.958999e-07	9.906118e-07	7.368824e-06	
16.140267	2.710869e-05	9.973269e-06	2.154243e-06	1.313920e-05	
16.141268	3.172559e-05	1.403259e-05	-2.768155e-06	3.137572e-06	
16.142269	8.626877e-06	4.300755e-06	-4.081168e-06	-4.329806e-06	
16.143270	2.006191e-06	-1.059887e-05	1.395174e-07	4.845292e-06	
16.144271	1.112761e-05	-1.572746e-05	7.670986e-07	6.352202e-06	
16.145272	8.521525e-06	8.834533e-07	6.354203e-07	-1.542717e-05	
16.146273	-3.240863e-06	1.371731e-05	-1.013329e-06	-2.260439e-05	
16.147274	-2.469538e-05	9.556076e-06	-2.131425e-06	-3.587517e-06	
16.148275	-2.503422e-05	9.377612e-06	-5.404984e-08	1.988981e-06	
16.149276	1.666721e-05	6.241465e-06	-3.776090e-06	-6.476334e-06	
16.150276	3.801090e-05	5.168181e-06	-4.365829e-06	-4.443792e-06	
16.151277	-4.420009e-06	1.499113e-05	1.909337e-06	3.564349e-06	
16.152278	-4.163297e-05	1.361636e-05	1.225149e-06	8.516861e-06	
16.153279	-8.776527e-06	7.818601e-06	-1.190696e-06	1.017273e-05	
16.154280	5.769096e-05	9.037383e-06	6.626183e-07	4.468442e-06	
16.155281	8.919898e-05	-3.514026e-06	2.492711e-07	-5.331047e-06	
16.156282	3.135748e-05	-1.863942e-05	-1.134700e-06	-6.755554e-06	
16.157283	-7.420658e-05	-1.065997e-05	1.993769e-06	1.246606e-06	
16.158284	-9.615866e-05	5.536539e-06	4.990181e-06	7.196128e-06	
16.159285	-3.741667e-05	6.716789e-06	1.714520e-06	5.793740e-06	
16.160286	1.624452e-07	-1.334991e-05	-1.411362e-06	4.505164e-06	
16.161287	-9.015942e-06	-2.725555e-05	4.671515e-07	3.840590e-06	
16.162288	-3.858685e-05	-4.712212e-06	2.269588e-06	-1.143379e-06	
16.163289	-2.898693e-05	2.608296e-05	2.769568e-06	1.789619e-06	
16.164290	1.764523e-05	3.101049e-05	3.720111e-06	1.048867e-05	
16.165291	1.895683e-05	2.048740e-05	2.820688e-06	7.271970e-06	
16.166292	-8.385691e-06	8.182228e-06	7.258065e-08	-3.015536e-07	
16.167293	9.288335e-06	-7.191336e-06	9.481189e-07	-1.182154e-06	
16.168294	3.327941e-05	-2.476206e-05	2.562504e-06	3.939776e-06	
16.169295	2.683926e-05	-3.840593e-05	-1.735160e-06	2.604160e-06	
16.170296	5.120172e-05	-3.723303e-05	-2.766038e-06	-4.397698e-06	
16.171296	5.676886e-05	-1.400561e-05	3.213949e-07	-7.091650e-06	
16.172297	-1.874261e-07	1.027673e-05	-2.246654e-06	-1.955148e-05	
16.173298	-2.291984e-05	1.570597e-05	-3.286814e-06	-2.346140e-05	
16.174299	-1.003321e-05	1.612897e-05	-2.934740e-06	-1.088409e-05	
16.175300	2.727719e-05	1.409138e-05	-6.128585e-06	-6.468699e-06	
16.176301	1.787088e-05	7.991948e-06	-4.329064e-06	1.380079e-06	
16.177302	-8.716497e-05	1.268327e-05	-1.819944e-06	6.356401e-06	
16.178303	-8.632028e-05	1.960121e-05	-2.496786e-06	1.476215e-06	
16.179304	-1.283470e-05	2.266633e-05	1.288905e-06	1.040887e-06	
16.180305	-1.426424e-05	1.910129e-05	2.631125e-06	1.886102e-06	
16.181306	-1.157491e-05	-2.954546e-06	-2.103495e-07	4.789544e-06	
16.182307	-1.029227e-05	-1.535892e-05	1.624185e-06	4.100731e-06	
16.183308	-2.970515e-06	-1.082911e-05	1.948818e-06	2.864198e-06	
16.184309	1.639857e-05	-1.379141e-05	2.537202e-06	5.613305e-06	
16.185310	8.017146e-06	-1.418897e-05	4.965983e-06	1.069009e-06	
16.186311	4.478633e-05	-1.451679e-05	-1.758665e-06	1.836518e-06	
16.187312	7.287884e-05	-1.379223e-05	-2.143910e-06	4.590629e-06	
16.188313	4.234444e-05	-4.136992e-06	5.447879e-06	-2.780634e-06	
16.189314	6.843088e-05	-9.508659e-06	-1.352881e-07	2.578537e-07	
16.190315	6.785057e-05	-1.984340e-05	-3.694722e-06	5.573049e-06	
16.191316	-5.442137e-05	-1.485443e-05	2.012716e-06	-6.847164e-07	
16.192316	-7.297802e-05	-6.147687e-06	1.226166e-06	5.200162e-06	
16.193317	6.001043e-05	1.041098e-05	-8.531245e-07	1.938580e-05	
16.194318	4.654943e-05	2.801898e-05	8.320466e-07	1.750317e-05	
16.195319	-1.047443e-04	1.930117e-05	8.727959e-08	1.064937e-05	
16.196320	-1.215891e-04	3.693342e-07	-2.375694e-06	4.967808e-06	
16.197321	-4.085696e-05	-1.829638e-06	-1.797461e-06	-5.376608e-07	
16.198322	-1.849375e-05	-7.580969e-06	-8.885770e-07	-5.832320e-08	
16.199323	-2.255435e-05	-1.676777e-05	-1.129557e-06	-2.067226e-05	
16.200324	-1.589732e-05	-9.397415e-06	2.821717e-06	-3.863169e-05	
16.201325	-1.323266e-05	-1.297264e-06	4.048179e-06	-1.839384e-05	
16.202326	2.306173e-06	8.978952e-06	2.577280e-07	-9.876807e-06	
16.203327	1.642599e-05	1.542775e-05	1.242365e-06	-5.173227e-06	
16.204328	3.309014e-05	4.090214e-06	1.558251e-06	1.547946e-05	
16.205329	4.928875e-05	5.413921e-06	-2.828907e-07	8.420620e-06	
16.206330	5.426423e-06	1.440944e-05	-4.116754e-07	-5.375640e-06	
16.207331	2.676183e-05	9.582461e-06	-1.924092e-06	-3.682066e-06	
16.208332	1.386006e-04	8.113028e-06	-2.879616e-07	-5.628165e-06	
16.209333	7.887308e-05	8.039611e-06	8.888013e-07	-6.530519e-07	
16.210334	-8.726967e-05	1.388465e-06	-2.518991e-06	5.542062e-06	
16.211335	-1.141693e-04	1.016620e-06	-1.800282e-06	1.644545e-08	
16.212336	-4.454702e-05	2.731779e-06	-5.991463e-07	2.029485e-06	
16.213337	1.298443e-05	-4.528210e-06	-1.939750e-06	9.544090e-06	
16.214337	1.910864e-05	-7.744396e-06	4.510792e-07	5.931453e-06	
16.215338	5.875328e-06	-4.779609e-06	8.447248e-07	1.709307e-06	
16.216339	-2.135272e-05	-7.354114e-06	-1.484519e-06	4.363950e-06	
16.217340	-5.053132e-05	-5.689256e-06	-9.437825e-07	5.565618e-06	
16.218341	2.145211e-05	7.877728e-07	-6.907936e-07	2.500214e-06	
16.219342	6.740844e-05	-5.882402e-06	-5.792456e-07	6.439710e-07	
16.220343	-7.974583e-06	-1.729113e-05	-3.214823e-07	3.222016e-06	
16.221344	-1.915476e-05	-1.161272e-05	1.109689e-07	3.350376e-06	
16.222345	1.783104e-05	1.031574e-05	1.529895e-06	5.101962e-07	
16.223346	-2.725161e-07	2.409625e-05	6.087479e-07	1.158184e-06	
16.224347	8.081600e-06	1.034072e-05	-8.400329e-07	2.671470e-07	
16.225348	7.620013e-05	-8.529099e-06	-3.043550e-07	-5.486801e-06	
16.226349	9.239261e-05	-1.437549e-05	-5.039799e-07	-9.191937e-06	
16.227350	5.494150e-05	-2.039087e-05	-8.836604e-07	-6.550564e-06	
16.228351	7.672073e-05	-1.670187e-05	8.642028e-07	-3.666695e-06	
16.229352	-1.485990e-06	2.979595e-06	1.537872e-06	-4.461983e-06	
16.230353	-1.837397e-04	1.462984e-05	1.869117e-06	-2.970337e-06	
16.231354	-1.240893e-04	1.125922e-05	3.705476e-06	-2.633005e-06	
16.232355	-4.026313e-06	7.576818e-06	2.242946e-06	-4.883005e-06	
16.233356	-7.157020e-05	8.582714e-06	4.462036e-07	1.851213e-07	
16.234357	-5.212552e-05	7.048963e-06	5.273683e-07	4.365588e-06	
16.235357	9.686104e-06	6.776696e-06	-1.144766e-06	7.114778e-10	
16.236358	-3.417332e-05	1.164745e-05	-2.397442e-06	2.062874e-07	
16.237359	-2.439144e-05	1.114517e-05	-6.561588e-07	4.716119e-06	
16.238360	3.941563e-06	3.296124e-06	1.420597e-06	5.630865e-06	
16.239361	-5.782255e-06	-6.358959e-06	3.438367e-07	4.526236e-06	
16.240362	1.704843e-05	-9.852328e-06	1.469307e-06	1.869202e-06	
16.241363	4.562308e-05	-3.873027e-06	2.247142e-06	1.375725e-06	
16.242364	4.613532e-05	-2.767846e-06	-2.667015e-06	3.371656e-06	
16.243365	7.931086e-05	-8.547662e-06	-1.774008e-06	7.404633e-06	
16.244366	1.275442e-04	-7.716488e-06	2.060391e-06	1.315602e-05	
16.245367	5.605886e-05	-3.480396e-06	1.037209e-07	1.028868e-05	
16.246368	-5.688882e-05	-2.091531e-06	-1.726225e-06	3.087204e-07	
16.247369	-7.219239e-05	2.801385e-06	-2.551769e-06	-5.105609e-06	
16.248370	-5.142612e-05	6.454867e-06	-3.240967e-06	-4.896928e-06	
16.249371	-4.780385e-05	-3.556476e-07	-2.651251e-06	-6.773974e-06	
16.250372	-4.584038e-05	-9.051859e-06	-1.680976e-06	-1.438150e-05	
16.251373	-2.968722e-07	-1.183833e-05	-1.118501e-06	-2.057863e-05	
16.252374	5.129923e-05	-8.475090e-06	5.146286e-07	-2.078533e-05	
16.253375	2.762931e-05	-4.722495e-06	3.084628e-06	-1.398997e-05	
16.254376	3.569958e-05	-3.794969e-06	3.327983e-06	-2.804921e-06	
16.255377	1.107716e-04	3.596382e-06	2.573930e-06	5.811826e-06	
16.256378	7.238838e-05	8.089286e-06	2.102200e-06	1.117353e-05	
16.257378	-2.650569e-05	1.555542e-06	4.499018e-07	1.275732e-05	
16.258379	-2.289365e-05	3.542624e-06	-1.417726e-06	1.001729e-05	
16.259380	-3.713214e-05	1.564076e-05	-4.142109e-08	5.675418e-06	
16.260381	-1.099859e-04	2.221993e-05	1.598077e-06	4.609338e-06	
16.261382	-1.010039e-04	1.619270e-05	-1.214138e-06	9.908639e-06	
16.262383	-3.855375e-05	2.056989e-06	-7.838785e-07	1.214217e-05	
16.263384	-2.665590e-05	-4.657694e-06	2.448035e-06	6.477118e-06	
16.264385	-2.901855e-05	-6.366198e-06	-2.666440e-07	9.573875e-07	
16.265386	7.517832e-06	-1.323992e-05	-3.198255e-06	-9.665504e-07	
16.266387	2.657753e-05	-1.996064e-05	-2.321569e-06	-5.264666e-08	
16.267388	1.258848e-05	-2.540203e-05	-8.772809e-07	-8.299680e-07	
16.268389	4.512521e-06	-2.432766e-05	-1.329067e-07	-4.432795e-06	
16.269390	2.014740e-05	-1.295840e-05	-9.321036e-07	-6.711319e-06	
16.270391	3.900287e-05	-3.982131e-06	-4.558441e-08	-6.581432e-06	
16.271392	2.110573e-05	3.169964e-06	6.785856e-07	2.166255e-06	
16.272393	1.381286e-05	1.480436e-05	-1.485501e-06	1.252272e-05	
16.273394	1.254690e-05	2.024520e-05	-2.511181e-07	1.075974e-05	
16.274395	7.969650e-06	1.824726e-05	2.271868e-06	4.838876e-06	
16.275396	4.680072e-05	1.431744e-05	1.043509e-06	-5.727657e-06	
16.276397	6.998902e-05	4.690427e-06	-1.174042e-06	-2.161107e-05	
16.277398	8.331114e-05	2.676984e-06	-1.733946e-06	-2.119092e-05	
16.278398	4.808464e-05	1.085709e-05	1.730165e-07	-1.196034e-05	
16.279399	-3.420954e-05	1.239336e-05	2.991330e-06	-2.030888e-05	
16.280400	5.400957e-06	1.648081e-05	5.686413e-06	-2.686469e-05	
16.281401	2.000416e-05	1.602902e-05	3.988106e-06	-9.037185e-06	
16.282402	-3.570202e-05	2.092012e-07	-1.768128e-06	1.143990e-05	
16.283403	6.165168e-06	-5.292387e-06	-1.692818e-06	1.654116e-05	
16.284404	-2.801184e-05	-1.045314e-06	-6.135921e-07	1.522932e-05	
16.285405	-1.151527e-04	-8.158003e-07	-3.946493e-06	1.594714e-05	
16.286406	-8.042966e-05	-3.164115e-06	-1.929177e-06	1.559944e-05	
16.287407	-4.471064e-05	-1.289879e-05	9.179482e-07	1.554995e-05	
16.288408	-4.237143e-05	-1.752080e-05	-2.387386e-06	1.585141e-05	
16.289409	-1.623715e-05	-9.648970e-06	-4.011734e-06	7.049852e-06	
16.290410	-2.311187e-07	-7.974331e-06	-2.238236e-06	-6.642210e-06	
16.291411	-1.731644e-05	-1.038359e-05	2.253562e-06	-1.651966e-05	
16.292412	-2.762628e-05	-7.242842e-06	5.676722e-06	-1.775542e-05	
16.293413	-1.589608e-05	-9.310542e-06	2.319379e-06	-3.321850e-06	
16.294414	-6.072676e-06	-1.879479e-05	-3.794831e-08	1.272890e-05	
16.295415	1.709180e-05	-2.326492e-05	-1.311093e-07	8.684044e-06	
16.296416	3.472319e-05	-1.782520e-05	-1.540025e-06	-2.085513e-06	
16.297417	3.762019e-05	-1.050207e-05	1.135840e-06	4.645083e-06	
16.298418	3.698587e-05	-4.012351e-06	3.308831e-06	1.144881e-05	
16.299418	1.494787e-05	2.454437e-06	6.380647e-07	-2.724834e-06	
16.300419	2.816681e-05	5.217027e-06	-3.472727e-07	-2.070785e-05	
16.301420	6.240335e-05	1.230698e-05	2.631296e-08	-2.323405e-05	
16.302421	3.085627e-05	2.464378e-05	-1.171095e-06	-7.047256e-06	
16.303422	-1.314273e-05	3.031155e-05	-1.600864e-06	9.987873e-06	
16.304423	-4.505568e-06	2.972370e-05	-2.132980e-07	1.182040e-05	
16.305424	3.834226e-05	2.592978e-05	8.953594e-07	7.351493e-06	
16.306425	2.772956e-05	2.255748e-05	7.019011e-08	2.300632e-06	
16.307426	-4.542421e-05	1.476735e-05	-2.369117e-06	1.489914e-06	
16.308427	-2.988385e-05	-2.266511e-06	-2.923676e-06	3.514165e-06	
16.309428	3.791639e-05	-1.359622e-05	9.080774e-07	4.234645e-06	
16.310429	4.277563e-05	-1.867748e-05	5.143812e-07	6.128193e-06	
16.311430	2.530247e-05	-1.049476e-05	-4.353823e-06	3.182605e-06	
16.312431	-3.127753e-05	1.341372e-05	-2.384949e-06	2.084616e-06	
16.313432	-8.047289e-05	1.574122e-05	-4.243047e-07	2.959964e-06	
16.314433	-4.525557e-05	-6.381120e-06	-2.847714e-06	-5.642346e-09	
16.315434	-7.067275e-06	-1.873234e-05	-1.107317e-06	-3.470137e-06	
16.316435	1.766604e-06	-7.210156e-06	2.830939e-06	-1.467399e-05	
16.317436	1.029228e-05	2.059115e-06	3.885546e-06	-2.132152e-05	
16.318437	1.482307e-05	-8.085720e-06	2.229935e-06	-1.553815e-05	
16.319438	1.002318e-05	-1.108938e-05	2.686351e-06	-6.587993e-06	
16.320439	-8.737074e-06	-9.509244e-06	3.931468e-06	6.483576e-06	
16.321439	-1.830043e-05	-1.304349e-05	2.071925e-06	1.190555e-05	
16.322440	-1.228149e-05	-1.283805e-05	2.352792e-06	4.974855e-06	
16.323441	-9.078348e-06	-3.428741e-06	2.625702e-06	-9.930627e-07	
16.324442	2.914977e-06	1.869006e-05	1.099058e-06	6.420107e-07	
16.325443	3.979571e-06	2.207940e-05	9.630761e-07	2.638325e-06	
16.326444	-1.649652e-05	5.995134e-06	-1.320275e-07	-1.245855e-06	
16.327445	-1.443757e-05	1.032356e-06	-1.365145e-06	-1.605603e-06	
16.328446	-1.702785e-06	-4.654518e-06	-2.575263e-06	2.148968e-06	
16.329447	4.867382e-06	-5.886507e-06	-1.299998e-06	3.725844e-06	
16.330448	1.382752e-05	4.835937e-06	1.695759e-06	2.204872e-06	
16.331449	1.150699e-05	-6.312251e-08	-1.631960e-06	-2.620153e-07	
16.332450	1.073583e-05	-1.076152e-05	-3.695184e-06	3.388238e-06	
16.333451	1.397678e-05	-9.615684e-06	-2.897688e-07	4.887959e-06	
16.334452	8.612218e-06	-1.251119e-05	-8.554967e-07	-3.499992e-07	
16.335453	-1.922572e-07	-1.024759e-05	-2.390897e-06	3.179842e-07	
16.336454	-9.338931e-06	-5.794957e-06	-1.823616e-06	4.226687e-06	
16.337455	-6.948352e-06	-1.173280e-05	-7.334556e-07	4.305928e-06	
16.338456	9.238210e-06	-3.499541e-06	1.936601e-06	1.170081e-06	
16.339457	1.937483e-05	4.165195e-06	2.864802e-08	-4.864128e-06	
16.340458	1.232294e-05	-4.597550e-06	-5.170257e-06	-7.942121e-06	
16.341459	4.145605e-06	-4.678685e-06	-4.025950e-06	-7.508684e-06	
16.342459	4.195469e-06	1.958013e-06	-7.679493e-07	-7.463986e-06	
16.343460	-1.579930e-06	1.144458e-05	-7.224383e-07	-3.825461e-06	
16.344461	-8.511265e-06	2.156215e-05	7.221838e-07	4.125026e-06	
16.345462	-9.480164e-06	1.900481e-05	1.322343e-06	1.369164e-05	
16.346463	-9.835153e-06	1.131730e-05	3.228706e-07	1.357610e-05	
16.347464	-9.298434e-06	7.841377e-06	2.540689e-06	-1.667350e-06	
16.348465	-1.073390e-05	4.493445e-06	2.221832e-06	-7.726448e-06	
16.349466	-7.930662e-06	1.456499e-06	2.847959e-07	7.293702e-07	
16.350467	-8.591060e-07	2.545661e-06	2.247113e-06	5.472429e-06	
16.351468	-3.880694e-07	-4.226003e-07	1.854364e-06	3.578102e-06	
16.352469	-1.260627e-06	-5.098989e-06	-4.094016e-07	-1.253300e-06	
16.353470	-2.543247e-06	7.119944e-07	8.132357e-07	-2.859896e-06	
16.354471	-3.335888e-06	2.107715e-06	3.641379e-06	-1.329552e-06	
16.355472	2.729905e-06	-3.611409e-06	2.392417e-06	-1.918620e-06	
16.356473	9.164011e-06	-3.733859e-06	-2.659481e-06	-3.396604e-06	
16.357474	1.072458e-05	-3.823529e-06	-2.218678e-06	-3.740118e-06	
16.358475	8.111532e-06	2.986201e-06	1.846188e-06	-7.421286e-06	
16.359476	6.152025e-06	1.021839e-05	1.353883e-06	-1.274622e-05	
16.360477	5.362817e-06	2.030427e-06	-6.908940e-07	-7.809420e-06	
16.361478	1.588767e-06	-1.704275e-06	-2.323589e-06	7.865432e-07	
16.362479	-1.348409e-06	8.609750e-08	-1.806120e-06	3.887081e-06	
16.363480	-4.932794e-06	-1.878118e-06	2.522501e-06	4.584266e-06	
16.364480	-6.793927e-06	4.604342e-06	2.411284e-06	3.015806e-06	
16.365481	-3.599305e-06	6.918918e-06	-2.147234e-06	7.821969e-06	
16.366482	-3.720968e-06	-2.904689e-07	-1.843373e-06	1.429400e-05	
16.367483	-3.702940e-06	1.239717e-07	1.021634e-06	8.677991e-06	
16.368484	-1.465636e-06	9.085042e-07	7.090377e-07	5.816051e-06	
16.369485	-1.073981e-06	-2.829676e-06	-1.352779e-07	3.616765e-06	
16.370486	4.222910e-07	-2.056032e-06	1.807632e-06	-9.012932e-06	
16.371487	1.506479e-06	8.505805e-07	4.003206e-06	-8.906619e-06	
16.372488	3.159348e-06	1.227338e-06	2.267026e-06	-2.429474e-06	
16.373489	3.257802e-06	-9.760781e-07	-1.380263e-06	-7.284493e-06	
16.374490	-3.712348e-07	-1.874514e-07	-2.145579e-06	-6.382936e-06	
16.375491	1.701032e-07	4.362483e-06	-1.669572e-06	8.091938e-07	
16.376492	8.921152e-07	3.946408e-06	-1.336823e-06	5.483385e-06	
16.377493	-5.821026e-07	-1.189911e-06	-3.235925e-07	7.582230e-06	
16.378494	6.009879e-07	-6.891773e-06	-1.790858e-06	4.732872e-06	
16.379495	3.561771e-07	-1.094309e-05	-3.052531e-06	-3.714275e-06	
16.380496	1.287865e-06	-1.083549e-05	-1.815332e-06	-7.595547e-06	
16.381497	1.725332e-06	-1.302327e-05	-2.283572e-06	7.879669e-07	
16.382498	-6.375692e-07	-2.241746e-05	-2.460268e-06	-1.909251e-07	
16.383499	2.969416e-06	-2.749910e-05	-8.171682e-07	-9.767241e-06	
16.384500	3.563847e-06	-2.308373e-05	9.783354e-07	-1.070361e-05	
16.385500	-1.927195e-06	-2.350534e-05	1.771669e-06	-1.005453e-05	
16.386501	-2.575320e-07	-2.645477e-05	1.868388e-06	-4.255039e-06	
16.387502	2.777494e-06	-2.025925e-05	2.076634e-06	5.988114e-08	
16.388503	6.543507e-07	-1.410470e-05	-6.456615e-07	8.118639e-06	
16.389504	-1.766553e-06	-1.459291e-05	-1.866919e-06	2.931573e-05	
16.390505	-2.435196e-06	-1.634483e-05	5.350883e-07	3.357920e-05	
16.391506	-2.356379e-06	-1.389508e-05	2.364309e-07	2.217405e-05	
16.392507	-1.714962e-06	-1.158242e-05	-6.876791e-07	6.501637e-06	
16.393508	-5.753596e-07	-3.281759e-06	-1.571665e-06	-1.087851e-05	
16.394509	-2.601136e-06	3.735456e-05	-3.542851e-06	-1.519201e-05	
16.395510	-3.802516e-06	8.663596e-05	-2.418833e-06	-1.522339e-05	
16.396511	-9.528777e-07	9.294293e-05	8.607165e-07	-1.079935e-05	
16.397512	-1.585821e-07	7.736929e-05	2.982137e-06	-5.304264e-06	
16.398513	-1.308992e-06	7.534189e-05	3.990572e-06	-1.017515e-05	
16.399514	-1.915256e-06	6.340673e-05	3.099915e-06	-5.036506e-06	
16.400515	3.152789e-07	3.556142e-05	1.092978e-06	6.754733e-06	
16.401516	2.167817e-06	1.731644e-05	2.088246e-07	4.120122e-06	
16.402517	-5.386797e-07	3.613354e-06	-6.534880e-07	-1.748202e-06	
16.403518	-9.985278e-07	-1.523802e-05	-1.797986e-07	-4.872251e-06	
16.404519	-5.630703e-07	-3.340363e-05	1.426198e-06	-8.381749e-06	
16.405520	-1.722623e-06	-4.351450e-05	1.837621e-06	-9.857350e-06	
16.406520	9.022805e-07	-3.829571e-05	2.612573e-06	-1.175367e-05	
16.407521	2.250764e-06	-2.399994e-05	2.979014e-06	-5.326155e-06	
16.408522	1.935839e-06	-1.262681e-05	4.234640e-06	4.588291e-06	
16.409523	4.690772e-06	-9.590281e-06	4.295646e-06	4.112501e-06	
16.410524	1.865692e-06	-1.148596e-05	2.803674e-07	3.735208e-06	
16.411525	-2.509519e-06	-1.347011e-05	6.019818e-07	3.416934e-06	
16.412526	9.244905e-07	-1.836174e-05	2.884929e-06	4.423478e-06	
16.413527	6.906968e-07	-2.377871e-05	2.488158e-08	1.053051e-05	
16.414528	-2.473489e-06	-2.725511e-05	-2.698994e-06	8.825127e-06	
16.415529	3.411451e-07	-3.094592e-05	-4.749834e-06	4.472775e-06	
16.416530	2.791224e-06	-2.943868e-05	-4.662373e-06	3.044645e-06	
16.417531	2.213164e-06	-2.102141e-05	-1.242501e-07	3.600299e-06	
16.418532	2.391677e-07	-1.394088e-05	6.235200e-07	5.157779e-06	
16.419533	-4.644486e-07	-1.248248e-05	-2.005951e-06	-1.135161e-06	
16.420534	1.157459e-06	-1.119064e-05	-2.760358e-06	-3.572615e-06	
16.421535	2.129501e-06	-5.507741e-06	-4.203762e-06	2.162740e-06	
16.422536	2.433640e-06	-9.912611e-07	-5.345455e-06	3.226143e-06	
16.423537	4.358242e-07	1.157252e-06	-5.596165e-06	1.488631e-06	
16.424538	-1.423133e-06	3.332876e-06	-5.671258e-06	-7.479701e-07	
16.425539	-1.736356e-06	2.931145e-06	-4.235235e-06	1.004934e-06	
16.426540	-3.449048e-06	4.411800e-06	-2.844719e-06	2.664496e-06	
16.427541	-1.844512e-06	6.129401e-06	-1.158906e-06	-2.443020e-06	
16.428541	6.208590e-07	5.175707e-06	2.258211e-06	-2.249785e-06	
16.429542	-5.439521e-07	8.414877e-06	3.978281e-06	-4.550907e-06	
16.430543	-4.812110e-07	1.135579e-05	2.469494e-06	-1.276478e-05	
16.431544	-8.572635e-07	1.322948e-05	1.751720e-06	-6.423776e-06	
16.432545	-3.276245e-06	1.493535e-05	2.779856e-06	2.092341e-06	
16.433546	-2.981797e-06	1.401060e-05	3.928880e-06	-8.097453e-07	
16.434547	-2.069306e-07	2.435141e-05	3.143536e-06	-1.024535e-06	
16.435548	1.247803e-06	4.191319e-05	-9.014037e-07	1.824727e-06	
16.436549	2.136760e-06	4.587526e-05	-1.924285e-06	7.953861e-07	
16.437550	3.454837e-06	4.029504e-05	2.521761e-06	-1.184941e-06	
16.438551	2.722880e-06	3.609252e-05	4.338850e-06	-1.694065e-06	
16.439552	8.025070e-07	2.286552e-05	3.344414e-06	-2.200003e-06	
16.440553	2.581319e-07	-3.767076e-06	4.269904e-06	-7.619082e-07	
16.441554	7.858367e-07	-2.008839e-05	2.333306e-06	2.337970e-06	
16.442555	-4.585465e-07	-2.052437e-05	5.324669e-08	2.820302e-06	
16.443556	-2.716906e-06	-1.950153e-05	2.610917e-06	1.821157e-06	
16.444557	-1.409156e-06	-1.756990e-05	1.651926e-06	-8.655522e-07	
16.445558	2.811584e-07	-1.528515e-05	-1.916844e-06	-1.260366e-06	
16.446559	-7.949409e-07	-1.082482e-05	-2.740668e-06	2.710768e-06	
16.447560	-1.723857e-06	-7.003236e-06	-2.829856e-06	2.529233e-06	
16.448561	-2.444610e-06	-1.352272e-05	-8.290012e-07	-3.034549e-07	
16.449561	-1.911693e-06	-2.183281e-05	-5.843729e-07	-2.387476e-06	
16.450562	7.530641e-07	-2.246032e-05	-1.454012e-06	-1.058495e-06	
16.451563	3.459339e-06	-1.899850e-05	1.635991e-06	3.458725e-06	
16.452564	2.848874e-06	-1.338081e-05	1.125012e-06	-2.576824e-07	
16.453565	-3.176517e-06	-8.051919e-06	-1.813077e-06	-2.239547e-06	
16.454566	-6.911808e-06	-7.572124e-06	8.449395e-07	3.599792e-06	
16.455567	-5.365598e-06	-5.450117e-06	2.121906e-06	2.027970e-06	
16.456568	-2.729458e-06	5.151939e-06	-3.182739e-08	5.670751e-07	
16.457569	4.534136e-06	1.226482e-05	-7.321674e-08	1.786263e-06	
16.458570	9.136007e-06	4.103276e-06	-1.638113e-06	-4.140740e-07	
16.459571	4.934034e-06	-1.103644e-05	-2.796331e-06	6.214233e-07	
16.460572	3.424854e-06	-1.772101e-05	-5.179831e-07	-1.000871e-06	
16.461573	2.545188e-06	-1.264921e-05	-1.726144e-06	-3.487896e-06	
16.462574	-1.038785e-06	-5.971401e-06	-5.453917e-06	7.354491e-07	
16.463575	9.259829e-07	-3.792255e-06	-5.373716e-06	2.544879e-06	
16.464576	2.986621e-06	-8.473826e-07	-1.042741e-06	-7.237447e-07	
16.465577	-5.740024e-07	3.203237e-06	1.845760e-06	-2.992975e-06	
16.466578	-3.053749e-06	5.706825e-06	6.743308e-07	-1.266500e-06	
16.467579	-4.105369e-07	9.959618e-06	1.881762e-06	1.494079e-06	
16.468580	1.513066e-06	1.451700e-05	4.321429e-06	1.901244e-06	
16.469581	-1.391356e-06	1.843825e-05	3.931180e-06	1.507947e-06	
16.470582	-2.399309e-06	2.052811e-05	4.347582e-06	3.930876e-07	
16.471582	-6.606313e-07	1.495407e-05	2.295762e-06	-1.565744e-06	
16.472583	-7.907290e-07	9.534401e-06	-3.342604e-06	-1.736673e-06	
16.473584	-4.992666e-07	1.245099e-05	-2.420375e-06	-4.085362e-07	
16.474585	8.964225e-07	1.263714e-05	6.697565e-07	-2.629998e-07	
16.475586	6.421378e-11	4.875965e-06	-2.872998e-06	8.640090e-07	
16.476587	-1.519274e-06	-1.157245e-06	-4.278968e-06	1.418580e-06	
16.477588	-8.222158e-07	-8.981593e-07	-2.349040e-06	-2.053996e-06	
16.478589	-1.934151e-06	1.882549e-06	-1.535289e-06	-2.320594e-06	
16.479590	-3.645008e-06	1.316020e-06	6.801029e-07	1.363332e-06	
16.480591	-2.256368e-06	2.652659e-06	2.477239e-06	1.281987e-06	
16.481592	-8.338180e-07	1.243334e-05	2.147812e-06	-5.391820e-07	
16.482593	1.350139e-06	1.567770e-05	2.280353e-07	7.523053e-07	
16.483594	2.662344e-06	1.046555e-05	-5.923624e-09	2.096181e-06	
16.484595	1.854967e-06	1.024402e-05	2.333241e-06	6.269564e-07	
16.485596	1.664303e-06	1.003015e-05	4.285602e-06	7.180643e-07	
16.486597	1.147454e-07	9.884363e-06	5.061571e-06	9.768443e-07	
16.487598	1.868262e-06	9.030832e-06	1.566362e-06	-1.943711e-06	
16.488599	5.198495e-06	2.446986e-06	-2.317317e-06	-2.142023e-06	
16.489600	2.431693e-06	-1.698602e-06	-1.331289e-06	-1.689958e-06	
16.490601	-2.600197e-07	-4.631906e-06	-4.925735e-07	-3.020966e-06	
16.491602	-2.323900e-06	-5.205707e-06	-2.502483e-06	-2.977739e-07	
16.492602	-4.259932e-06	-6.694011e-06	-4.080812e-06	2.214899e-06	
16.493603	-2.862553e-06	-2.192319e-05	-2.744051e-06	-9.655964e-07	
16.494604	-4.128434e-06	-3.724673e-05	-1.195269e-06	-5.273346e-06	
16.495605	-5.670046e-06	-4.244532e-05	-1.122610e-06	-3.578658e-06	
16.496606	-1.100035e-06	-4.851812e-05	-5.235712e-07	-3.570767e-07	
16.497607	3.538531e-06	-5.074755e-05	8.412611e-07	-1.850371e-06	
16.498608	5.045055e-06	-3.089123e-05	1.536167e-07	-1.816656e-07	
16.499609	5.960686e-06	4.123224e-06	-1.729073e-06	9.301032e-07	
16.500610	3.998519e-06	2.538764e-05	8.005703e-07	-2.487108e-06	
16.501611	1.252115e-06	2.457504e-05	1.086044e-06	-5.055794e-07	
16.502612	2.600897e-06	1.347925e-05	-2.250411e-06	1.844960e-06	
16.503613	5.531383e-06	-1.088776e-05	-3.857737e-07	1.405198e-07	
16.504614	5.799114e-06	-4.627156e-05	7.153516e-07	5.360484e-07	
16.505615	2.487351e-06	-6.059297e-05	2.516304e-06	2.263821e-06	
16.506616	-9.463183e-07	-5.714929e-05	5.555326e-06	3.210376e-06	
16.507617	-3.233525e-06	-5.131989e-05	2.505743e-06	1.735012e-06	
16.508618	-6.311678e-06	-3.253183e-06	2.151298e-06	5.245344e-08	
16.509619	-1.102804e-05	7.723729e-05	1.851139e-06	4.030967e-06	
16.510620	-1.566253e-05	1.238592e-04	-3.809361e-06	7.102336e-06	
16.511621	-1.436160e-05	1.186079e-04	-4.549561e-06	5.492517e-06	
16.512622	-7.149995e-06	6.582015e-05	-6.408456e-07	4.689726e-06	
16.513622	1.070205e-06	7.793832e-06	2.016505e-06	3.053103e-06	
16.514623	4.223190e-06	-2.123852e-06	2.868888e-07	4.866699e-06	
16.515624	6.235801e-09	3.078038e-06	-4.777902e-06	7.824276e-06	
16.516625	-3.933563e-06	-9.647698e-06	-7.421706e-06	6.267562e-06	
16.517626	-2.624627e-06	-2.093912e-05	-4.797505e-06	5.511565e-06	
16.518627	8.187657e-06	-1.189263e-05	5.002568e-06	-6.693319e-06	
16.519628	1.606400e-05	2.899450e-06	1.035441e-05	-1.925224e-05	
16.520629	5.054205e-06	-6.682838e-06	2.476965e-06	-5.569556e-06	
16.521630	1.267535e-06	1.019213e-06	2.321511e-06	2.377819e-06	
16.522631	1.199765e-05	3.853894e-05	1.060538e-05	-1.266686e-05	
16.523632	1.103463e-05	3.393279e-05	6.212742e-06	-1.637564e-05	
16.524633	3.379492e-06	-4.748243e-06	-6.587120e-07	-3.873776e-06	
16.525634	1.597242e-06	-3.308794e-05	-1.318257e-06	4.753922e-06	
16.526635	2.697535e-06	-5.262580e-05	-3.900350e-06	5.354104e-06	
16.527636	-2.773202e-06	-5.525381e-05	-6.970505e-06	7.776055e-06	
16.528637	-1.010857e-05	-3.021266e-05	-7.498098e-06	9.891819e-06	
16.529638	-6.196815e-06	8.284467e-06	-2.026566e-06	1.456092e-06	
16.530639	-1.161049e-06	3.151892e-05	4.884166e-06	-6.077747e-06	
16.531640	-2.180075e-06	1.795980e-05	-2.050115e-07	-1.538729e-06	
16.532641	-8.324953e-06	-2.535950e-05	-9.844797e-06	7.019169e-06	
16.533642	-4.891074e-06	-3.534143e-05	-2.541273e-06	-5.868511e-07	
16.534643	1.336076e-05	1.041035e-05	1.277747e-05	-1.776232e-05	
16.535643	1.231637e-05	3.841438e-05	9.266628e-06	-1.347614e-05	
16.536644	3.033350e-08	3.180267e-05	-3.454438e-06	-2.414914e-06	
16.537645	8.563940e-07	1.942595e-05	-4.414112e-06	-9.481937e-07	
16.538646	1.202693e-06	-4.295097e-06	-2.571216e-06	2.303007e-06	
16.539647	1.452199e-06	-1.381758e-05	-3.578335e-06	2.540720e-06	
16.540648	6.536644e-07	1.300424e-05	-2.407610e-06	2.226455e-06	
16.541649	-5.368752e-06	2.204021e-05	-4.289767e-06	4.086322e-06	
16.542650	-8.509978e-06	-1.092380e-05	-6.236020e-06	2.199579e-06	
16.543651	-9.250988e-06	-2.358339e-05	-1.209203e-06	2.158315e-06	
16.544652	-1.030444e-05	-1.338090e-05	2.889128e-06	3.753640e-06	
16.545653	-1.060235e-05	-2.110632e-05	1.361896e-06	3.119723e-06	
16.546654	-4.006594e-06	-3.167759e-05	-3.724406e-08	3.252023e-06	
16.547655	6.138847e-06	-3.710742e-05	3.897068e-07	3.177397e-06	
16.548656	6.215841e-06	-3.700067e-05	-3.785807e-07	1.661472e-06	
16.549657	3.183794e-06	-2.155880e-05	-1.311549e-06	4.719188e-07	
16.550658	5.668850e-06	7.049792e-06	1.060529e-07	3.438290e-08	
16.551659	4.536743e-06	2.377701e-05	1.784480e-06	8.518000e-07	
16.552660	3.464659e-06	8.547579e-06	2.091175e-06	2.716064e-07	
16.553661	7.343667e-06	2.419082e-06	2.733109e-06	-1.692109e-06	
16.554662	6.198074e-06	9.818591e-06	3.293001e-06	-5.767234e-07	
16.555663	2.002702e-06	-3.554616e-06	2.103420e-06	8.301349e-07	
16.556663	-1.053489e-06	-1.614235e-06	4.354968e-07	-3.972645e-07	
16.557664	-3.604832e-06	3.151986e-05	-2.633551e-07	-1.207771e-06	
16.558665	-2.215767e-06	5.290542e-05	6.738226e-07	-7.745068e-07	
16.559666	-9.214094e-07	3.678933e-05	2.090253e-06	-7.396051e-07	
16.560667	-1.746082e-06	7.329557e-06	2.487507e-06	-9.838682e-07	
16.561668	-2.418477e-06	9.640875e-06	2.383504e-06	9.194093e-07	
16.562669	-2.414691e-06	2.073290e-05	6.362087e-07	2.912451e-06	
16.563670	-6.927484e-07	-6.770374e-06	9.484751e-08	-9.333779e-08	
16.564671	-7.350888e-07	-3.762440e-05	1.716536e-06	-1.973333e-06	
16.565672	-2.503665e-06	-2.289968e-05	-3.997522e-07	1.794572e-06	
16.566673	-4.352596e-06	1.676015e-05	-1.825457e-06	2.396437e-06	
16.567674	-8.169684e-06	4.442930e-05	6.527933e-07	1.781166e-07	
16.568675	-8.644107e-06	2.943602e-05	1.757248e-06	-2.816884e-07	
16.569676	-2.766874e-06	-2.458404e-05	7.284127e-07	-1.793197e-06	
16.570677	3.206807e-06	-5.192547e-05	-3.774049e-06	-1.574273e-06	
16.571678	8.304646e-06	-3.383613e-05	-6.433415e-06	1.407034e-07	
16.572679	1.101514e-05	3.865582e-06	-3.235813e-06	-8.984894e-07	
16.573680	6.244555e-06	3.991606e-05	-1.001104e-07	-1.777750e-06	
16.574681	8.336903e-07	3.350883e-05	1.116184e-06	-6.705781e-07	
16.575682	6.686763e-07	-1.696663e-05	-9.746507e-07	-7.412499e-07	
16.576683	1.303805e-07	-6.080302e-05	-1.500797e-06	-2.849883e-06	
16.577684	-2.501389e-06	-6.802820e-05	4.689686e-07	-2.218340e-06	
16.578684	-6.516485e-06	-4.404673e-05	-1.158631e-06	8.227168e-07	
16.579685	-1.202697e-05	6.230852e-06	-7.331525e-07	8.503551e-07	
16.580686	-1.222789e-05	3.598616e-05	9.205896e-07	-1.058358e-06	
16.581687	-6.339952e-06	3.317424e-05	6.559371e-07	-1.097137e-06	
16.582688	1.485631e-06	3.373305e-05	-5.990509e-09	1.451753e-06	
16.583689	1.208957e-05	2.242197e-06	-1.885905e-06	2.704032e-06	
16.584690	1.580718e-05	-1.036169e-05	4.390813e-08	1.203479e-06	
16.585691	1.001324e-05	3.087359e-05	2.222017e-06	3.556628e-07	
16.586692	5.122717e-06	4.089924e-05	1.668512e-06	2.193316e-06	
16.587693	3.492828e-06	2.870875e-05	2.895370e-06	5.454311e-06	
16.588694	6.260840e-06	-1.988726e-06	1.567823e-06	4.927727e-06	
16.589695	5.156855e-06	-3.720555e-05	-9.288130e-07	1.246961e-06	
16.590696	-2.094494e-06	-3.141409e-05	-1.754342e-06	-1.293847e-06	
16.591697	-9.315057e-07	-3.042534e-05	-2.160163e-06	-3.847309e-06	
16.592698	4.140104e-06	-3.106004e-05	9.928981e-07	-7.171964e-06	
16.593699	2.711661e-06	-1.423021e-05	3.156461e-06	-7.992795e-06	
16.594700	-1.737419e-06	1.131339e-05	1.915968e-06	-4.199967e-06	
16.595701	-5.215343e-06	4.789614e-05	5.873899e-07	-4.585185e-07	
16.596702	-3.336618e-06	3.415844e-05	-2.178616e-06	-2.104110e-07	
16.597703	1.432034e-06	-1.539714e-05	-1.587333e-06	-1.428801e-06	
16.598704	1.305806e-06	-8.639363e-06	2.182825e-06	-1.402633e-06	
16.599704	-1.484768e-06	3.780107e-05	1.300421e-06	-8.986955e-07	
16.600705	-4.724486e-06	4.518471e-05	-5.170037e-08	9.221117e-08	
16.601706	-6.452039e-06	-2.795053e-06	1.061297e-06	1.858208e-06	
16.602707	-3.828138e-06	-3.935861e-05	2.014105e-06	3.766439e-07	
16.603708	-4.069073e-06	-3.432961e-05	2.649730e-06	1.571250e-06	
16.604709	-3.019862e-06	-2.406382e-05	6.614400e-07	4.725984e-06	
16.605710	2.360750e-06	-2.800414e-05	3.876624e-07	1.260708e-06	
16.606711	2.396076e-06	-4.064068e-05	1.564177e-06	-1.888483e-06	
16.607712	4.706732e-06	-2.732751e-05	-6.408495e-07	-2.486773e-06	
16.608713	7.582299e-06	1.658275e-05	3.457235e-07	-2.693591e-06	
16.609714	1.848896e-06	5.305480e-05	9.117443e-07	-2.396470e-06	
16.610715	1.003993e-06	6.790308e-05	-2.027210e-06	-3.327215e-06	
16.611716	3.764571e-06	5.710414e-05	-1.520853e-06	-2.992353e-06	
16.612717	-8.045240e-07	3.125918e-05	2.037390e-07	-2.904164e-06	
16.613718	-3.311311e-06	7.032100e-06	2.746373e-06	-4.425228e-06	
16.614719	-9.363537e-06	-1.280188e-05	7.684570e-07	3.557941e-07	
16.615720	-1.396558e-05	-4.669907e-06	-5.178708e-07	2.798275e-06	
16.616721	-9.575771e-06	1.241285e-05	3.362025e-07	3.552610e-06	
16.617722	-3.192426e-05	-2.586450e-05	-2.415396e-05	3.243709e-05	
16.618723	-4.719844e-05	-8.111980e-05	-4.359088e-05	5.387561e-05	
16.619724	-3.762229e-05	-1.117922e-04	-3.909417e-05	4.976106e-05	
16.620724	-3.463721e-05	-1.077155e-04	-3.203359e-05	4.363610e-05	
16.621725	-1.300735e-05	-5.057313e-05	-1.135843e-05	1.761898e-05	
16.622726	-2.402701e-05	-5.602973e-05	-1.887709e-05	2.437287e-05	
16.623727	-8.980824e-06	-6.192407e-05	-5.621047e-06	1.394720e-05	
16.624728	8.625796e-05	6.752449e-05	7.068496e-05	-7.304345e-05	
16.625729	1.077242e-04	1.585454e-04	9.117692e-05	-1.062983e-04	
16.626730	8.977308e-05	1.782469e-04	7.448056e-05	-9.714039e-05	
16.627731	6.826852e-05	1.609878e-04	4.972376e-05	-7.040827e-05	
16.628732	4.598704e-06	3.020207e-05	-6.828840e-06	-1.231264e-06	
16.629733	-1.360528e-05	-6.847844e-05	-2.586148e-05	2.396240e-05	
16.630734	3.065204e-06	-3.373892e-05	-8.770102e-06	6.248435e-06	
16.631735	6.984656e-06	5.421932e-06	1.536994e-07	-1.910032e-06	
16.632736	-8.742048e-06	-1.917894e-05	-9.817741e-06	1.252696e-05	
16.633737	-1.838863e-05	-2.371041e-05	-1.546086e-05	1.914572e-05	
16.634738	-7.497335e-06	-3.594135e-06	-8.537369e-06	7.243167e-06	
16.635739	-1.217598e-05	-4.315764e-05	-1.022008e-05	1.174246e-05	
16.636740	-9.253673e-06	-5.222379e-05	-4.376136e-06	8.671477e-06	
16.637741	-9.318817e-06	3.340421e-05	-1.417223e-06	3.563610e-07	
16.638742	-2.461026e-05	7.123824e-05	-6.777949e-06	5.348931e-06	
16.639743	-2.380798e-05	2.185570e-05	-7.299362e-06	7.174717e-06	
16.640744	-1.802603e-05	-2.814863e-05	-1.110654e-05	9.205902e-06	
16.641745	-6.174224e-06	-5.746149e-05	-7.833910e-06	8.233814e-06	
16.642745	-8.677871e-06	-6.582974e-05	-9.715937e-06	1.369664e-05	
16.643746	-2.041517e-05	-4.989306e-05	-1.734492e-05	1.965421e-05	
16.644747	-1.011939e-06	-2.675179e-06	-3.516454e-06	9.736433e-07	
16.645748	2.832630e-06	5.882440e-05	5.141330e-06	-3.997509e-06	
16.646749	-1.162215e-05	6.800811e-05	-1.652226e-06	8.162347e-06	
16.647750	-2.816785e-06	2.654823e-05	2.095567e-06	-1.873394e-06	
16.648751	-3.474046e-06	-9.936439e-06	2.991897e-06	-1.972792e-06	
16.649752	-8.881576e-06	-1.757198e-05	-2.754824e-06	1.045478e-05	
16.650753	2.831290e-06	-1.706623e-06	7.351652e-07	4.426403e-06	
16.651754	1.023321e-05	1.445986e-05	7.748688e-06	-5.911913e-06	
16.652755	9.609555e-07	2.291957e-06	1.058377e-06	-2.226311e-06	
16.653756	-9.121766e-06	-3.417605e-05	-1.072887e-05	9.547305e-06	
16.654757	9.669410e-06	-2.556934e-05	3.628764e-06	-5.863068e-06	
16.655758	1.511337e-05	3.467668e-06	1.200051e-05	-1.428688e-05	
16.656759	1.129584e-06	-4.895174e-06	2.821768e-06	1.874436e-06	
16.657760	8.755864e-06	-3.975077e-06	3.379900e-06	-3.359064e-06	
16.658761	-1.498004e-05	-4.906662e-06	-1.992194e-05	1.754577e-05	
16.659762	-2.322744e-05	-1.542440e-06	-2.102554e-05	2.578325e-05	
16.660763	2.157089e-05	6.052763e-06	2.173296e-05	-2.133283e-05	
16.661764	1.688357e-05	-1.688309e-05	1.819607e-05	-2.124947e-05	
16.662765	-9.460324e-06	-2.058989e-05	-6.183018e-06	4.787580e-06	
16.663765	-1.450759e-05	-1.828489e-05	-1.003825e-05	1.373760e-05	
16.664766	-3.379866e-05	-4.205142e-05	-2.271053e-05	3.394566e-05	
16.665767	-2.739165e-05	-6.310550e-05	-1.960736e-05	2.766490e-05	
16.666768	2.854516e-05	-1.727729e-05	2.328931e-05	-2.423435e-05	
16.667769	6.508245e-05	8.603767e-05	5.502806e-05	-6.872870e-05	
16.668770	4.194054e-05	1.032892e-04	3.418185e-05	-5.423527e-05	
16.669771	1.278616e-05	4.012502e-05	4.941630e-06	-1.594184e-05	
16.670772	1.064171e-05	8.303622e-06	2.710247e-06	-7.758921e-06	
16.671773	-1.378805e-06	-1.085403e-05	-7.246781e-06	6.701809e-06	
16.672774	-1.734341e-05	-3.739013e-05	-2.387254e-05	3.030393e-05	
16.673775	-5.613051e-07	-9.558209e-06	-7.211871e-06	1.055514e-05	
16.674776	1.752254e-05	4.479917e-05	1.188329e-05	-1.430459e-05	
16.675777	9.856190e-06	4.254354e-05	3.298995e-06	-4.842271e-06	
16.676778	-3.841923e-06	2.104070e-05	-5.136930e-06	6.499395e-06	
16.677779	-1.695998e-05	2.619507e-06	-1.104619e-05	1.467848e-05	
16.678780	-1.483294e-05	-1.100500e-05	-1.089428e-05	1.518703e-05	
16.679781	4.990776e-06	2.562947e-05	1.908035e-06	-1.905653e-06	
16.680782	2.796654e-06	3.589146e-05	-1.525102e-08	-1.507117e-06	
16.681783	-9.072620e-06	8.580688e-06	-3.355055e-06	6.962222e-06	
16.682784	-2.201989e-06	1.709642e-05	4.394324e-06	-2.789265e-06	
16.683785	-1.418068e-05	-2.600349e-05	-9.501372e-06	9.386963e-06	
16.684786	-2.905832e-05	-8.212709e-05	-1.871643e-05	2.419773e-05	
16.685786	-1.910342e-05	-4.109567e-05	-5.402520e-06	9.342795e-06	
16.686787	-1.302566e-05	-1.035730e-05	-1.556797e-06	3.293733e-06	
16.687788	-6.970548e-06	-5.456230e-05	-4.059874e-06	8.073707e-06	
16.688789	4.205953e-06	-7.103468e-05	-6.609682e-07	3.420101e-06	
16.689790	1.708394e-05	-6.846691e-06	1.291864e-05	-1.354660e-05	
16.690791	2.004545e-05	3.099820e-05	1.528873e-05	-2.155945e-05	
16.691792	8.157886e-06	1.634233e-05	1.817841e-06	-1.017312e-05	
16.692793	2.982262e-06	2.307367e-05	4.721463e-07	-5.588072e-06	
16.693794	-3.732439e-07	2.085046e-05	2.578489e-06	-4.983734e-06	
16.694795	-7.521197e-06	1.615621e-06	-2.183359e-06	7.095034e-06	
16.695796	-4.405834e-06	1.561388e-06	-3.423780e-06	1.043032e-05	
16.696797	9.134479e-06	1.158504e-05	3.952534e-06	-6.136849e-06	
16.697798	7.179470e-06	6.665159e-06	5.032948e-06	-8.273764e-06	
16.698799	-5.867742e-06	-2.342639e-06	-1.680177e-06	2.406391e-06	
16.699800	-9.698888e-06	-5.732234e-06	-8.596628e-06	5.432979e-06	
16.700801	-1.494061e-05	-2.853529e-05	-1.644022e-05	1.619271e-05	
16.701802	4.736402e-07	-2.091897e-05	6.016005e-07	5.026947e-06	
16.702803	2.669240e-05	2.540607e-05	2.269623e-05	-2.582529e-05	
16.703804	1.984317e-05	2.130692e-05	1.459653e-05	-1.849426e-05	
16.704805	5.559262e-06	-2.418997e-06	1.736026e-06	-4.538065e-07	
16.705806	-2.096130e-06	1.585481e-05	-5.665613e-06	-2.463649e-06	
16.706806	-1.686559e-05	1.187093e-05	-1.423565e-05	1.129380e-05	
16.707807	-2.590677e-05	-3.845495e-05	-1.841969e-05	3.227172e-05	
16.708808	-5.222647e-06	-4.126070e-05	-1.727002e-06	1.106072e-05	
16.709809	3.354174e-05	3.702050e-05	2.981387e-05	-3.541927e-05	
16.710810	2.365429e-05	8.496138e-05	2.009157e-05	-3.175393e-05	
16.711811	-8.353326e-06	4.087747e-05	-9.456959e-06	4.896016e-06	
16.712812	7.731954e-06	2.007648e-05	5.474541e-06	-5.861593e-06	
16.713813	1.458265e-06	2.759368e-05	1.003894e-06	-8.613936e-06	
16.714814	-3.289484e-05	-2.403806e-05	-3.049240e-05	3.130559e-05	
16.715815	-6.031303e-07	-1.664480e-05	2.753121e-06	7.595635e-06	
16.716816	4.133243e-05	4.968534e-05	3.975175e-05	-4.488043e-05	
16.717817	1.632151e-05	2.355806e-05	1.136787e-05	-1.963142e-05	
16.718818	-1.992552e-05	-3.380557e-05	-2.011558e-05	2.540797e-05	
16.719819	-2.778391e-05	-5.570031e-05	-2.492829e-05	2.873632e-05	
16.720820	-2.353894e-05	-6.511065e-05	-1.884934e-05	1.828166e-05	
16.721821	-1.742354e-05	-5.614370e-05	-1.027452e-05	1.918245e-05	
16.722822	-1.506856e-05	-4.671506e-05	-6.553387e-06	1.990786e-05	
16.723823	-1.280535e-05	-3.548522e-05	-6.700810e-06	9.126427e-06	
16.724824	-7.027443e-06	-1.739750e-05	-3.015762e-06	7.394742e-06	
16.725825	-2.341420e-06	-1.055995e-05	2.569327e-06	7.186367e-06	
16.726826	3.327860e-06	-3.554629e-06	3.376425e-06	-8.134518e-06	
16.727827	7.005375e-06	1.118129e-05	3.944413e-06	-1.222528e-05	
16.728827	4.299869e-06	2.746451e-05	3.754575e-06	-1.021351e-06	
16.729828	4.229115e-06	3.758671e-05	2.933668e-06	6.422902e-06	
16.730829	1.059754e-05	3.226375e-05	4.915079e-06	8.298231e-06	
16.731830	1.263164e-05	2.212937e-05	4.244949e-06	4.257609e-06	
16.732831	1.089906e-05	1.877636e-05	1.767556e-06	-3.852951e-06	
16.733832	1.279589e-05	1.825970e-05	1.726882e-06	-5.303232e-06	
16.734833	1.178662e-05	1.430644e-05	4.406407e-06	-1.904438e-07	
16.735834	8.787175e-06	9.104021e-06	7.092998e-06	5.903799e-07	
16.736835	6.821091e-06	6.703846e-06	6.959045e-06	-1.138968e-05	
16.737836	5.723980e-06	2.444584e-06	4.534363e-06	-3.434305e-05	
16.738837	8.556474e-06	-2.519873e-06	1.882480e-06	-3.556083e-05	
16.739838	4.472310e-06	-5.418153e-06	3.738922e-06	-8.257572e-06	
16.740839	-3.222470e-06	-6.303593e-06	7.109524e-06	2.812554e-06	
16.741840	-2.400242e-06	-5.501527e-07	4.597488e-06	-3.842601e-06	
16.742841	-9.211132e-07	1.022696e-05	1.966956e-07	2.366507e-06	
16.743842	-9.232148e-07	1.752250e-05	-2.100178e-06	6.923656e-06	
16.744843	-2.280181e-06	1.110483e-05	-3.878388e-06	-1.077858e-05	
16.745844	-4.849820e-06	-4.688873e-06	-1.963195e-06	-1.927945e-05	
16.746845	-2.697681e-06	-1.094978e-05	-4.016885e-08	-3.438065e-06	
16.747846	-1.893983e-06	-7.053233e-06	-3.755620e-06	3.026046e-06	
16.748847	-5.595757e-06	-6.997808e-06	-4.079211e-06	2.545029e-06	
16.749847	-5.389130e-06	-2.517369e-06	-1.673733e-06	5.425233e-06	
16.750848	-4.178435e-06	1.374590e-05	-5.448193e-06	5.010246e-07	
16.751849	-4.815913e-06	1.372296e-05	-6.091797e-06	2.982212e-06	
16.752850	-3.803167e-07	-7.657861e-06	-8.735443e-07	1.148210e-05	
16.753851	3.006061e-06	-2.197835e-05	-1.477256e-07	9.612293e-06	
16.754852	-3.497400e-07	-2.833831e-05	9.455861e-07	9.410574e-06	
16.755853	-5.610116e-06	-3.762014e-05	2.483450e-06	1.229226e-05	
16.756854	-1.078044e-05	-3.031140e-05	5.370045e-08	6.653643e-06	
16.757855	-1.097819e-05	-1.048603e-06	1.974363e-07	5.080775e-09	
16.758856	-6.509632e-06	1.097103e-05	-1.258819e-06	-2.848798e-06	
16.759857	-2.007418e-06	8.417859e-06	-1.521996e-06	-4.243636e-06	
16.760858	2.133958e-06	1.523388e-05	-1.169238e-07	1.001433e-07	
16.761859	3.877521e-06	1.033969e-05	-4.728860e-06	7.289116e-06	
16.762860	2.808007e-06	-2.951920e-06	-2.053449e-06	1.469269e-05	
16.763861	1.636421e-06	-3.570311e-06	3.284591e-06	1.804455e-05	
16.764862	4.846174e-06	3.692313e-06	8.365714e-07	1.575732e-05	
16.765863	6.915294e-06	5.930701e-06	-1.972572e-06	1.140006e-05	
16.766864	3.264618e-06	4.083744e-07	-5.843847e-06	4.688589e-07	
16.767865	2.075126e-06	-3.316294e-06	-3.857275e-06	-6.250918e-06	
16.768866	-3.489822e-07	-3.613452e-06	1.799780e-07	-1.393941e-05	
16.769867	-2.894781e-06	4.522806e-06	-2.339296e-06	-2.477872e-05	
16.770867	7.918756e-07	8.581600e-06	4.773373e-07	-1.070835e-05	
16.771868	1.152667e-06	-3.358377e-06	3.503335e-06	5.057619e-06	
16.772869	5.996182e-07	-2.710797e-06	-1.304936e-07	1.017057e-06	
16.773870	2.035483e-06	-5.442576e-06	-1.214481e-06	-2.082532e-06	
16.774871	-1.801697e-07	-2.278853e-05	8.825439e-07	-5.238528e-06	
16.775872	2.477836e-07	-1.141774e-05	3.385130e-06	-5.862219e-06	
16.776873	9.271556e-07	5.848702e-06	3.996394e-06	4.345708e-06	
16.777874	-8.056965e-07	8.628167e-06	3.167930e-06	9.247463e-06	
16.778875	7.501273e-07	2.308659e-05	3.578908e-06	-2.203384e-07	
16.779876	2.647067e-07	3.286978e-05	3.642610e-06	-1.029993e-05	
16.780877	-1.190298e-06	2.551617e-05	4.758298e-06	-1.367813e-05	
16.781878	8.740001e-08	1.516370e-05	5.492021e-06	-7.204287e-06	
16.782879	2.161574e-06	1.503255e-05	2.323115e-06	1.973040e-07	
16.783880	5.603776e-06	1.832510e-05	7.147084e-07	-5.965218e-06	
16.784881	4.358390e-06	1.335177e-05	3.022966e-06	-5.886133e-06	
16.785882	1.786585e-06	7.743157e-06	4.712458e-06	5.986510e-06	
16.786883	1.202272e-06	-2.797880e-08	2.464488e-06	1.257390e-05	
16.787884	-3.036167e-06	-2.136828e-06	-1.944908e-06	1.438200e-05	
16.788885	-3.025855e-06	-2.529950e-06	-5.396346e-06	1.686939e-05	
16.789886	-1.427624e-06	-1.529232e-05	-8.222190e-06	1.849179e-05	
16.790887	-5.693466e-06	-2.036394e-05	-7.232561e-06	7.350643e-06	
16.791888	-8.460206e-06	-2.568412e-05	-5.306558e-06	-1.218213e-06	
16.792888	-5.974799e-06	-4.488510e-05	-7.574313e-06	2.059468e-06	
16.793889	-2.607535e-06	-4.937502e-05	-7.208458e-06	-3.921472e-06	
16.794890	-4.925127e-06	-3.942223e-05	-3.621232e-06	-1.170954e-05	
16.795891	-5.188971e-06	-3.066498e-05	-5.264199e-06	-2.352051e-05	
16.796892	1.584622e-07	-1.763152e-05	-7.100581e-06	-3.153952e-05	
16.797893	2.214826e-06	-1.183094e-05	-1.437677e-06	-1.135383e-05	
16.798894	1.344688e-06	-1.345166e-05	1.319186e-06	5.110018e-06	
16.799895	1.631268e-06	3.912115e-06	3.207731e-06	-1.035536e-07	
16.800896	4.704302e-06	2.662477e-05	7.191304e-06	-3.772322e-06	
16.801897	2.211302e-06	2.940516e-05	3.619690e-06	-1.843824e-06	
16.802898	3.146983e-06	4.978528e-05	7.510624e-06	-3.826437e-06	
16.803899	1.439648e-05	7.534195e-05	1.585532e-05	-6.416224e-06	
16.804900	1.287810e-05	3.944805e-05	9.405613e-06	-2.295310e-06	
16.805901	5.044741e-06	-3.711361e-06	8.180081e-07	1.157897e-06	
16.806902	2.930639e-06	4.706615e-06	-1.490704e-06	6.533439e-06	
16.807903	4.593003e-07	1.755494e-05	-1.342967e-06	1.925583e-05	
16.808904	-1.957365e-06	2.307916e-06	5.517355e-07	1.706402e-05	
16.809905	-6.216400e-06	-9.060649e-06	1.180667e-07	-4.038763e-07	
16.810906	-3.202849e-06	-4.730866e-06	-1.909286e-06	6.533457e-06	
16.811907	3.427953e-06	-3.318636e-05	-1.889810e-06	1.989626e-05	
16.812908	1.442377e-06	-5.107248e-05	-2.239780e-06	3.691700e-06	
16.813908	5.177401e-07	-6.976701e-06	-6.709430e-07	-2.186167e-06	
16.814909	-1.184410e-06	2.296225e-05	1.316753e-06	6.055248e-06	
16.815910	-6.219769e-06	1.863874e-05	-1.205100e-06	-1.919708e-06	
16.816911	-4.727813e-06	4.501085e-06	-1.045496e-06	-9.265049e-06	
16.817912	-4.026657e-06	-1.161033e-05	-1.297489e-06	-8.718922e-06	
16.818913	-8.624195e-06	2.084702e-06	-2.649718e-06	-3.185337e-06	
16.819914	-7.087786e-06	1.086145e-05	-6.363960e-07	1.858715e-06	
16.820915	3.608273e-07	-1.448176e-05	-4.517590e-06	-2.239766e-06	
16.821916	2.260961e-06	-2.219106e-05	-5.807271e-06	-3.163456e-06	
16.822917	-2.352703e-06	-1.179632e-05	5.291402e-07	3.132733e-06	
16.823918	-2.206655e-06	-2.743708e-06	2.043452e-06	5.240306e-06	
16.824919	1.122803e-06	1.927200e-05	1.580283e-06	3.089483e-06	
16.825920	-5.822991e-07	2.667160e-05	1.499321e-06	5.058422e-06	
16.826921	-9.211729e-07	9.263435e-06	5.337102e-07	6.664095e-06	
16.827922	1.724937e-06	-4.058667e-06	1.194107e-06	1.712990e-06	
16.828923	4.070463e-06	-1.227369e-05	2.047637e-06	-1.087098e-06	
16.829924	4.205750e-06	-1.309487e-05	2.250182e-06	1.146190e-06	
16.830925	-7.826528e-07	5.786212e-06	1.830851e-06	-1.988447e-06	
16.831926	-4.118432e-06	3.406051e-05	1.084608e-06	-8.399720e-06	
16.832927	-2.805932e-06	3.977195e-05	3.222960e-07	-2.340071e-06	
16.833928	-2.619466e-06	8.919676e-06	-7.679689e-08	5.162638e-06	
16.834929	1.252514e-06	-2.396143e-05	-1.250991e-06	-9.424121e-07	
16.835929	8.572168e-06	-2.868806e-05	-2.182964e-06	-3.877740e-06	
16.836930	6.761926e-06	-1.798503e-05	-1.281102e-07	-5.884609e-06	
16.837931	2.566546e-06	-5.616630e-06	-8.671841e-08	-1.373468e-05	
16.838932	1.864759e-06	1.485612e-06	-9.293243e-07	-8.667045e-06	
16.839933	3.798717e-07	-1.338833e-05	1.558114e-06	-1.273884e-06	
16.840934	1.436600e-06	-3.971047e-05	1.455102e-07	-6.653478e-06	
16.841935	-3.349949e-07	-5.146880e-05	-4.746288e-06	-1.042309e-05	
16.842936	-3.349881e-06	-4.533478e-05	-5.515889e-06	-7.802316e-06	
16.843937	-3.629458e-06	-6.940543e-06	-2.662084e-06	-1.848454e-06	
16.844938	-4.037378e-06	3.453012e-05	-1.081499e-06	2.248158e-06	
16.845939	-2.022725e-06	1.730655e-05	-2.916240e-06	2.895916e-06	
16.846940	-8.517941e-07	-1.599810e-05	-2.416579e-06	3.939987e-06	
16.847941	3.479509e-07	1.573158e-06	8.049964e-07	1.039406e-06	
16.848942	2.023594e-06	5.200344e-05	2.592248e-07	1.403426e-06	
16.849943	2.024970e-08	6.368126e-05	9.625811e-07	8.469633e-06	
16.850944	-1.534703e-06	1.804057e-05	2.256960e-06	1.154972e-05	
16.851945	1.374194e-06	1.830782e-06	-7.227320e-07	9.883518e-06	
16.852946	8.779555e-06	1.403530e-05	7.164234e-07	6.885465e-06	
16.853947	1.204462e-05	-1.470169e-05	2.571471e-06	3.749830e-06	
16.854948	5.721747e-06	-2.991300e-05	2.288963e-06	-4.110218e-07	
16.855949	5.799375e-07	-1.873652e-05	6.698294e-06	-2.626960e-06	
16.856949	-2.484816e-06	-1.948374e-05	7.307858e-06	-9.200886e-07	
16.857950	-8.125732e-06	2.197470e-05	4.001741e-06	7.034416e-07	
16.858951	-9.861418e-06	7.605310e-05	1.068687e-07	-1.500314e-06	
16.859952	-9.018090e-06	8.409721e-05	-3.702923e-06	-4.819983e-06	
16.860953	-3.387341e-06	5.956130e-05	-3.728431e-06	5.198911e-07	
16.861954	6.534038e-06	-1.942429e-05	-3.939081e-06	5.632439e-06	
16.862955	2.961263e-06	-6.188056e-05	-9.483492e-08	3.497182e-06	
16.863956	-7.078070e-06	-1.220869e-05	4.459106e-06	5.842240e-06	
16.864957	-7.078302e-06	-5.602024e-06	1.714686e-06	6.526384e-06	
16.865958	-2.145645e-06	-3.367251e-05	-1.701916e-07	4.827774e-06	
16.866959	5.248404e-06	-3.300617e-05	2.059240e-06	9.173555e-06	
16.867960	8.447070e-06	-4.927334e-05	3.782638e-06	7.383598e-06	
16.868961	5.247926e-06	-7.163619e-05	7.856746e-07	7.592742e-07	
16.869962	4.265962e-06	-5.347271e-05	-3.380339e-06	-4.086967e-06	
16.870963	1.593425e-07	-5.742005e-06	-2.375371e-06	-1.433677e-05	
16.871964	-2.786426e-06	2.623994e-05	3.358427e-07	-1.608583e-05	
16.872965	-8.190235e-08	6.191232e-05	-1.922499e-06	-3.635047e-06	
16.873966	7.711054e-07	9.110651e-05	-1.973458e-06	3.586976e-06	
16.874967	4.831669e-06	5.344604e-05	2.972171e-06	9.659136e-07	
16.875968	6.387473e-06	-7.011174e-06	-6.979726e-07	-5.217355e-06	
16.876969	3.082810e-06	-3.491681e-05	-2.670798e-06	-6.163184e-06	
16.877969	2.116663e-06	-3.121906e-05	1.642213e-06	-2.645356e-06	
16.878970	-5.086269e-06	-1.303257e-05	1.023128e-06	-1.604930e-06	
16.879971	-1.274704e-05	-4.529109e-06	1.544010e-06	-1.271700e-06	
16.880972	-1.110449e-05	-4.685978e-05	-1.904918e-06	-8.474448e-06	
16.881973	-8.915997e-06	-9.222952e-05	-3.741375e-06	-1.586920e-05	
16.882974	-8.164204e-06	-3.108253e-05	2.207297e-06	-1.171938e-05	
16.883975	-2.790929e-06	3.879028e-05	3.267113e-07	-1.110313e-05	
16.884976	4.406031e-06	3.259513e-05	-3.512272e-06	-8.810213e-06	
16.885977	7.663638e-06	3.400591e-05	-3.897948e-06	4.023935e-06	
16.886978	8.261815e-06	2.781753e-05	-2.541217e-06	8.231563e-06	
16.887979	8.627609e-06	7.864916e-06	8.207224e-07	7.826217e-06	
16.888980	6.520096e-06	4.015362e-05	-2.663719e-06	1.102105e-05	
16.889981	-2.994408e-06	3.119171e-05	-4.310589e-06	9.370605e-06	
16.890982	-1.203698e-05	-5.274453e-05	-3.494538e-06	8.514956e-06	
16.891983	-1.533333e-05	-6.112152e-06	-8.801802e-06	1.072657e-05	
16.892984	-1.839970e-05	9.314237e-05	-5.735872e-06	1.282436e-05	
16.893985	-8.940640e-06	2.993659e-05	2.682169e-06	1.075682e-05	
16.894986	5.840068e-06	-4.305090e-05	6.795876e-06	8.623620e-06	
16.895987	7.607457e-06	-3.200374e-05	9.365861e-06	1.219273e-05	
16.896988	1.389875e-05	-1.960574e-06	7.166615e-06	8.004800e-06	
16.897989	2.457517e-05	1.325047e-05	6.099962e-06	4.273780e-07	
16.898990	2.279463e-05	-3.222179e-05	5.969988e-06	-2.553382e-06	
16.899990	1.925410e-05	-7.104928e-05	2.896226e-06	-5.179883e-06	
16.900991	1.829726e-05	-9.148028e-06	3.030701e-06	-7.667556e-06	
16.901992	5.243781e-06	9.945077e-05	1.133656e-06	-1.165857e-05	
16.902993	-1.425341e-05	9.351086e-05	-2.656878e-06	-7.596425e-06	
16.903994	-2.092884e-05	8.696195e-07	-1.366458e-06	-5.739460e-06	
16.904995	-1.863542e-05	-3.515715e-05	-3.810001e-06	-1.644349e-05	
16.905996	-9.825830e-06	-4.187307e-05	-7.789849e-06	-1.386194e-05	
16.906997	2.034296e-06	-1.914308e-05	-3.713988e-06	-1.366608e-06	
16.907998	2.162918e-06	1.818611e-05	-8.522342e-07	1.169894e-06	
16.908999	1.076522e-05	7.850382e-06	3.038869e-06	2.499157e-06	
16.910000	2.194112e-05	-3.836000e-06	8.462568e-06	3.767353e-06	
