X [s]	1 Gast Med [V]	2 T Ant [V]	3 R Fem [V]	4 B Fem [V]	
15.860000	9.318354e-06	5.676382e-05	4.826236e-06	9.088249e-06	
15.861001	9.370186e-06	5.712491e-05	4.877438e-06	9.120841e-06	
15.862002	9.419667e-06	5.747048e-05	4.929081e-06	9.150750e-06	
15.863003	9.466698e-06	5.779964e-05	4.981164e-06	9.177854e-06	
15.864004	9.511183e-06	5.811148e-05	5.033686e-06	9.202028e-06	
15.865005	9.553024e-06	5.840509e-05	5.086645e-06	9.223149e-06	
15.866006	9.592123e-06	5.867957e-05	5.140043e-06	9.241093e-06	
15.867007	9.628383e-06	5.893401e-05	5.193877e-06	9.255738e-06	
15.868008	9.661706e-06	5.916751e-05	5.248146e-06	9.266959e-06	
15.869009	9.691994e-06	5.937915e-05	5.302851e-06	9.274633e-06	
15.870010	9.719151e-06	5.956805e-05	5.357991e-06	9.278637e-06	
15.871010	9.743078e-06	5.973329e-05	5.413563e-06	9.278847e-06	
15.872011	9.763678e-06	5.987396e-05	5.469569e-06	9.275139e-06	
15.873012	9.780853e-06	5.998917e-05	5.526006e-06	9.267390e-06	
15.874013	9.794506e-06	6.007800e-05	5.582874e-06	9.255476e-06	
15.875014	9.804549e-06	6.013959e-05	5.640172e-06	9.239280e-06	
15.876015	9.811123e-06	6.017375e-05	5.697866e-06	9.218797e-06	
15.877016	9.814588e-06	6.018099e-05	5.755894e-06	9.194139e-06	
15.878017	9.815318e-06	6.016186e-05	5.814194e-06	9.165420e-06	
15.879018	9.813683e-06	6.011689e-05	5.872702e-06	9.132754e-06	
15.880019	9.810056e-06	6.004661e-05	5.931354e-06	9.096258e-06	
15.881020	9.804808e-06	5.995157e-05	5.990088e-06	9.056044e-06	
15.882021	9.798311e-06	5.983230e-05	6.048840e-06	9.012230e-06	
15.883022	9.790937e-06	5.968934e-05	6.107546e-06	8.964928e-06	
15.884023	9.783056e-06	5.952322e-05	6.166144e-06	8.914255e-06	
15.885024	9.775041e-06	5.933449e-05	6.224571e-06	8.860325e-06	
15.886025	9.767265e-06	5.912368e-05	6.282761e-06	8.803253e-06	
15.887026	9.760097e-06	5.889133e-05	6.340654e-06	8.743154e-06	
15.888027	9.753910e-06	5.863797e-05	6.398185e-06	8.680142e-06	
15.889028	9.749076e-06	5.836414e-05	6.455291e-06	8.614333e-06	
15.890029	9.745966e-06	5.807039e-05	6.511908e-06	8.545841e-06	
15.891030	9.744953e-06	5.775724e-05	6.567974e-06	8.474782e-06	
15.892031	9.746407e-06	5.742524e-05	6.623424e-06	8.401270e-06	
15.893031	9.750701e-06	5.707492e-05	6.678197e-06	8.325419e-06	
15.894032	9.758205e-06	5.670682e-05	6.732228e-06	8.247346e-06	
15.895033	9.769293e-06	5.632147e-05	6.785454e-06	8.167164e-06	
15.896034	9.784335e-06	5.591942e-05	6.837812e-06	8.084989e-06	
15.897035	9.803703e-06	5.550120e-05	6.889238e-06	8.000935e-06	
15.898036	9.827770e-06	5.506735e-05	6.939670e-06	7.915117e-06	
15.899037	9.856905e-06	5.461841e-05	6.989043e-06	7.827651e-06	
15.900038	9.891483e-06	5.415491e-05	7.037295e-06	7.738651e-06	
15.901039	9.931873e-06	5.367739e-05	7.084363e-06	7.648231e-06	
15.902040	9.978448e-06	5.318639e-05	7.130183e-06	7.556508e-06	
15.903041	1.003158e-05	5.268244e-05	7.174691e-06	7.463595e-06	
15.904042	1.009164e-05	5.216609e-05	7.217825e-06	7.369607e-06	
15.905043	1.015900e-05	5.163786e-05	7.259521e-06	7.274660e-06	
15.906044	1.023403e-05	5.109830e-05	7.299715e-06	7.178868e-06	
15.907045	1.031710e-05	5.054795e-05	7.338346e-06	7.082346e-06	
15.908046	1.040859e-05	4.998734e-05	7.375348e-06	6.985210e-06	
15.909047	1.050887e-05	4.941701e-05	7.410659e-06	6.887573e-06	
15.910048	1.061830e-05	4.883750e-05	7.444216e-06	6.789550e-06	
15.911049	1.073726e-05	4.824934e-05	7.475956e-06	6.691257e-06	
15.912050	1.086613e-05	4.765307e-05	7.505814e-06	6.592809e-06	
15.913051	1.100527e-05	4.704923e-05	7.533728e-06	6.494320e-06	
15.914051	1.115505e-05	4.643835e-05	7.559635e-06	6.395905e-06	
15.915052	1.131585e-05	4.582098e-05	7.583470e-06	6.297679e-06	
15.916053	1.148804e-05	4.519765e-05	7.605172e-06	6.199757e-06	
15.917054	1.167199e-05	4.456890e-05	7.624676e-06	6.102253e-06	
15.918055	1.186807e-05	4.393526e-05	7.641919e-06	6.005284e-06	
15.919056	1.207665e-05	4.329727e-05	7.656838e-06	5.908962e-06	
15.920057	1.229811e-05	4.265548e-05	7.669370e-06	5.813404e-06	
15.921058	1.253282e-05	4.201041e-05	7.679451e-06	5.718725e-06	
15.922059	1.278114e-05	4.136260e-05	7.687018e-06	5.625038e-06	
15.923060	1.304346e-05	4.071260e-05	7.692008e-06	5.532459e-06	
15.924061	1.332013e-05	4.006094e-05	7.694357e-06	5.441103e-06	
15.925062	1.361152e-05	3.940815e-05	7.694006e-06	5.351082e-06	
15.926063	1.391743e-05	3.875463e-05	7.690949e-06	5.262447e-06	
15.927064	1.423725e-05	3.810069e-05	7.685234e-06	5.175200e-06	
15.928065	1.457034e-05	3.744662e-05	7.676904e-06	5.089342e-06	
15.929066	1.491607e-05	3.679272e-05	7.666009e-06	5.004871e-06	
15.930067	1.527379e-05	3.613929e-05	7.652593e-06	4.921788e-06	
15.931068	1.564287e-05	3.548661e-05	7.636703e-06	4.840092e-06	
15.932069	1.602268e-05	3.483499e-05	7.618387e-06	4.759782e-06	
15.933070	1.641257e-05	3.418472e-05	7.597689e-06	4.680859e-06	
15.934071	1.681190e-05	3.353611e-05	7.574658e-06	4.603322e-06	
15.935071	1.722005e-05	3.288944e-05	7.549339e-06	4.527171e-06	
15.936072	1.763637e-05	3.224500e-05	7.521779e-06	4.452405e-06	
15.937073	1.806023e-05	3.160311e-05	7.492025e-06	4.379025e-06	
15.938074	1.849099e-05	3.096405e-05	7.460123e-06	4.307030e-06	
15.939075	1.892800e-05	3.032812e-05	7.426119e-06	4.236419e-06	
15.940076	1.937065e-05	2.969561e-05	7.390060e-06	4.167192e-06	
15.941077	1.981828e-05	2.906682e-05	7.351993e-06	4.099349e-06	
15.942078	2.027026e-05	2.844206e-05	7.311964e-06	4.032890e-06	
15.943079	2.072595e-05	2.782160e-05	7.270020e-06	3.967815e-06	
15.944080	2.118472e-05	2.720576e-05	7.226206e-06	3.904122e-06	
15.945081	2.164592e-05	2.659482e-05	7.180571e-06	3.841812e-06	
15.946082	2.210893e-05	2.598909e-05	7.133159e-06	3.780885e-06	
15.947083	2.257310e-05	2.538885e-05	7.084019e-06	3.721340e-06	
15.948084	2.303780e-05	2.479440e-05	7.033195e-06	3.663176e-06	
15.949085	2.350239e-05	2.420605e-05	6.980736e-06	3.606394e-06	
15.950086	2.396623e-05	2.362408e-05	6.926687e-06	3.550993e-06	
15.951087	2.442868e-05	2.304880e-05	6.871094e-06	3.496973e-06	
15.952088	2.488912e-05	2.248049e-05	6.814005e-06	3.444334e-06	
15.953089	2.534689e-05	2.191946e-05	6.755466e-06	3.393075e-06	
15.954090	2.580137e-05	2.136600e-05	6.695523e-06	3.343196e-06	
15.955091	2.625191e-05	2.082041e-05	6.634223e-06	3.294696e-06	
15.956092	2.669789e-05	2.028298e-05	6.571612e-06	3.247576e-06	
15.957092	2.713865e-05	1.975401e-05	6.507738e-06	3.201835e-06	
15.958093	2.757357e-05	1.923379e-05	6.442645e-06	3.157473e-06	
15.959094	2.800201e-05	1.872263e-05	6.376382e-06	3.114489e-06	
15.960095	2.842332e-05	1.822081e-05	6.308995e-06	3.072883e-06	
15.961096	2.883688e-05	1.772864e-05	6.240529e-06	3.032655e-06	
15.962097	2.924205e-05	1.724640e-05	6.171032e-06	2.993804e-06	
15.963098	2.963818e-05	1.677440e-05	6.100550e-06	2.956330e-06	
15.964099	3.002465e-05	1.631294e-05	6.029130e-06	2.920234e-06	
15.965100	3.040081e-05	1.586230e-05	5.956818e-06	2.885514e-06	
15.966101	3.076602e-05	1.542278e-05	5.883660e-06	2.852170e-06	
15.967102	3.111966e-05	1.499469e-05	5.809704e-06	2.820202e-06	
15.968103	3.146108e-05	1.457831e-05	5.734995e-06	2.789610e-06	
15.969104	3.178964e-05	1.417394e-05	5.659580e-06	2.760393e-06	
15.970105	3.210471e-05	1.378189e-05	5.583507e-06	2.732551e-06	
15.971106	3.240565e-05	1.340243e-05	5.506820e-06	2.706084e-06	
15.972107	3.269183e-05	1.303588e-05	5.429568e-06	2.680991e-06	
15.973108	3.296260e-05	1.268253e-05	5.351795e-06	2.657272e-06	
15.974109	3.321733e-05	1.234267e-05	5.273550e-06	2.634927e-06	
15.975110	3.345543e-05	1.201657e-05	5.194878e-06	2.613957e-06	
15.976111	3.367695e-05	1.170420e-05	5.115833e-06	2.594382e-06	
15.977112	3.388245e-05	1.140527e-05	5.036471e-06	2.576238e-06	
15.978112	3.407248e-05	1.111948e-05	4.956851e-06	2.559560e-06	
15.979113	3.424763e-05	1.084654e-05	4.877029e-06	2.544383e-06	
15.980114	3.440844e-05	1.058616e-05	4.797063e-06	2.530745e-06	
15.981115	3.455550e-05	1.033804e-05	4.717011e-06	2.518679e-06	
15.982116	3.468936e-05	1.010190e-05	4.636929e-06	2.508223e-06	
15.983117	3.481060e-05	9.877438e-06	4.556875e-06	2.499411e-06	
15.984118	3.491977e-05	9.664362e-06	4.476906e-06	2.492280e-06	
15.985119	3.501744e-05	9.462380e-06	4.397081e-06	2.486865e-06	
15.986120	3.510418e-05	9.271198e-06	4.317455e-06	2.483201e-06	
15.987121	3.518056e-05	9.090523e-06	4.238087e-06	2.481325e-06	
15.988122	3.524714e-05	8.920064e-06	4.159034e-06	2.481272e-06	
15.989123	3.530449e-05	8.759526e-06	4.080353e-06	2.483078e-06	
15.990124	3.535317e-05	8.608617e-06	4.002102e-06	2.486779e-06	
15.991125	3.539375e-05	8.467044e-06	3.924337e-06	2.492409e-06	
15.992126	3.542679e-05	8.334514e-06	3.847117e-06	2.500006e-06	
15.993127	3.545286e-05	8.210734e-06	3.770499e-06	2.509604e-06	
15.994128	3.547253e-05	8.095411e-06	3.694540e-06	2.521240e-06	
15.995129	3.548637e-05	7.988252e-06	3.619298e-06	2.534948e-06	
15.996130	3.549493e-05	7.888964e-06	3.544829e-06	2.550765e-06	
15.997131	3.549879e-05	7.797255e-06	3.471192e-06	2.568727e-06	
15.998132	3.549850e-05	7.712830e-06	3.398443e-06	2.588869e-06	
15.999133	3.549465e-05	7.635398e-06	3.326640e-06	2.611226e-06	
16.000133	3.548779e-05	7.564665e-06	3.255841e-06	2.635835e-06	
16.001134	3.547848e-05	7.500339e-06	3.186102e-06	2.662731e-06	
16.002135	3.546730e-05	7.442126e-06	3.117482e-06	2.691950e-06	
16.003136	3.545481e-05	7.389733e-06	3.050036e-06	2.723527e-06	
16.004137	3.544157e-05	7.342868e-06	2.983824e-06	2.757498e-06	
16.005138	3.542816e-05	7.301238e-06	2.918902e-06	2.793900e-06	
16.006139	3.541514e-05	7.264549e-06	2.855328e-06	2.832767e-06	
16.007140	3.540307e-05	7.232508e-06	2.793158e-06	2.874135e-06	
16.008141	3.539252e-05	7.204824e-06	2.732451e-06	2.918040e-06	
16.009142	3.538406e-05	7.181202e-06	2.673264e-06	2.964518e-06	
16.010143	3.537825e-05	7.161350e-06	2.615654e-06	3.013605e-06	
16.011144	3.537565e-05	7.144975e-06	2.559678e-06	3.065335e-06	
16.012145	3.537684e-05	7.131784e-06	2.505394e-06	3.119745e-06	
16.013146	3.538238e-05	7.121484e-06	2.452859e-06	3.176871e-06	
16.014147	3.539284e-05	7.113782e-06	2.402131e-06	3.236747e-06	
16.015148	3.540878e-05	7.108384e-06	2.353267e-06	3.299411e-06	
16.016149	3.543076e-05	7.104999e-06	2.306324e-06	3.364897e-06	
16.017150	3.545936e-05	7.103334e-06	2.261360e-06	3.433241e-06	
16.018151	3.549514e-05	7.103094e-06	2.218432e-06	3.504479e-06	
16.019152	3.553867e-05	7.103987e-06	2.177597e-06	3.578647e-06	
16.020153	3.559050e-05	7.105721e-06	2.138914e-06	3.655780e-06	
16.021153	3.565122e-05	7.108003e-06	2.102438e-06	3.735914e-06	
16.022154	3.572137e-05	7.110538e-06	2.068228e-06	3.819085e-06	
16.023155	3.580154e-05	7.113035e-06	2.036341e-06	3.905328e-06	
16.024156	3.589228e-05	7.115201e-06	2.006834e-06	3.994679e-06	
16.025157	3.599411e-05	7.116759e-06	1.979759e-06	4.087167e-06	
16.026158	3.610690e-05	7.117648e-06	1.955096e-06	4.182743e-06	
16.027159	3.623010e-05	7.117947e-06	1.932776e-06	4.281303e-06	
16.028160	3.636313e-05	7.117740e-06	1.912729e-06	4.382743e-06	
16.029161	3.650542e-05	7.117111e-06	1.894887e-06	4.486960e-06	
16.030162	3.665641e-05	7.116143e-06	1.879178e-06	4.593848e-06	
16.031163	3.681553e-05	7.114919e-06	1.865535e-06	4.703304e-06	
16.032164	3.698221e-05	7.113524e-06	1.853887e-06	4.815223e-06	
16.033165	3.715588e-05	7.112039e-06	1.844165e-06	4.929501e-06	
16.034166	3.733598e-05	7.110550e-06	1.836299e-06	5.046035e-06	
16.035167	3.752194e-05	7.109138e-06	1.830220e-06	5.164720e-06	
16.036168	3.771318e-05	7.107888e-06	1.825858e-06	5.285451e-06	
16.037169	3.790914e-05	7.106884e-06	1.823144e-06	5.408125e-06	
16.038170	3.810926e-05	7.106207e-06	1.822008e-06	5.532637e-06	
16.039171	3.831296e-05	7.105943e-06	1.822380e-06	5.658884e-06	
16.040172	3.851968e-05	7.106174e-06	1.824192e-06	5.786761e-06	
16.041173	3.872884e-05	7.106983e-06	1.827374e-06	5.916164e-06	
16.042173	3.893988e-05	7.108455e-06	1.831855e-06	6.046988e-06	
16.043174	3.915224e-05	7.110672e-06	1.837567e-06	6.179130e-06	
16.044175	3.936534e-05	7.113719e-06	1.844440e-06	6.312486e-06	
16.045176	3.957861e-05	7.117678e-06	1.852404e-06	6.446950e-06	
16.046177	3.979149e-05	7.122632e-06	1.861391e-06	6.582420e-06	
16.047178	4.000341e-05	7.128667e-06	1.871330e-06	6.718791e-06	
16.048179	4.021380e-05	7.135864e-06	1.882151e-06	6.855958e-06	
16.049180	4.042209e-05	7.144307e-06	1.893786e-06	6.993818e-06	
16.050181	4.062772e-05	7.154079e-06	1.906165e-06	7.132266e-06	
16.051182	4.083011e-05	7.165265e-06	1.919218e-06	7.271199e-06	
16.052183	4.102870e-05	7.177947e-06	1.932876e-06	7.410511e-06	
16.053184	4.122292e-05	7.192209e-06	1.947069e-06	7.550100e-06	
16.054185	4.141221e-05	7.208135e-06	1.961728e-06	7.689860e-06	
16.055186	4.159599e-05	7.225807e-06	1.976783e-06	7.829687e-06	
16.056187	4.177369e-05	7.245309e-06	1.992165e-06	7.969478e-06	
16.057188	4.194475e-05	7.266725e-06	2.007803e-06	8.109128e-06	
16.058189	4.210860e-05	7.290139e-06	2.023630e-06	8.248534e-06	
16.059190	4.226467e-05	7.315632e-06	2.039574e-06	8.387590e-06	
16.060191	4.241239e-05	7.343290e-06	2.055567e-06	8.526192e-06	
16.061192	4.255120e-05	7.373194e-06	2.071539e-06	8.664237e-06	
16.062193	4.268053e-05	7.405430e-06	2.087420e-06	8.801621e-06	
16.063194	4.279980e-05	7.440080e-06	2.103141e-06	8.938238e-06	
16.064194	4.290846e-05	7.477227e-06	2.118632e-06	9.073986e-06	
16.065195	4.300592e-05	7.516956e-06	2.133825e-06	9.208759e-06	
16.066196	4.309164e-05	7.559349e-06	2.148649e-06	9.342454e-06	
16.067197	4.316502e-05	7.604489e-06	2.163034e-06	9.474967e-06	
16.068198	4.322552e-05	7.652462e-06	2.176912e-06	9.606193e-06	
16.069199	4.327255e-05	7.703349e-06	2.190212e-06	9.736028e-06	
16.070200	4.330556e-05	7.757234e-06	2.202866e-06	9.864368e-06	
16.071201	4.332397e-05	7.814201e-06	2.214803e-06	9.991108e-06	
16.072202	4.332722e-05	7.874333e-06	2.225955e-06	1.011615e-05	
16.073203	4.331473e-05	7.937713e-06	2.236251e-06	1.023938e-05	
16.074204	4.328594e-05	8.004425e-06	2.245622e-06	1.036069e-05	
16.075205	4.324036e-05	8.074543e-06	2.254005e-06	1.048000e-05	
16.076206	4.317824e-05	8.148040e-06	2.261399e-06	1.059722e-05	
16.077207	4.310031e-05	8.224831e-06	2.267843e-06	1.071229e-05	
16.078208	4.300727e-05	8.304827e-06	2.273375e-06	1.082517e-05	
16.079209	4.289985e-05	8.387944e-06	2.278032e-06	1.093580e-05	
16.080210	4.277878e-05	8.474092e-06	2.281853e-06	1.104411e-05	
16.081211	4.264476e-05	8.563187e-06	2.284876e-06	1.115006e-05	
16.082212	4.249852e-05	8.655141e-06	2.287139e-06	1.125359e-05	
16.083213	4.234077e-05	8.749867e-06	2.288681e-06	1.135464e-05	
16.084214	4.217224e-05	8.847278e-06	2.289539e-06	1.145315e-05	
16.085214	4.199365e-05	8.947288e-06	2.289752e-06	1.154908e-05	
16.086215	4.180571e-05	9.049810e-06	2.289359e-06	1.164236e-05	
16.087216	4.160915e-05	9.154756e-06	2.288396e-06	1.173294e-05	
16.088217	4.140468e-05	9.262041e-06	2.286903e-06	1.182077e-05	
16.089218	4.119303e-05	9.371577e-06	2.284917e-06	1.190578e-05	
16.090219	4.097490e-05	9.483277e-06	2.282476e-06	1.198792e-05	
16.091220	4.075103e-05	9.597055e-06	2.279620e-06	1.206714e-05	
16.092221	4.052214e-05	9.712824e-06	2.276386e-06	1.214338e-05	
16.093222	4.028893e-05	9.830497e-06	2.272812e-06	1.221658e-05	
16.094223	4.005213e-05	9.949987e-06	2.268936e-06	1.228670e-05	
16.095224	3.981246e-05	1.007121e-05	2.264797e-06	1.235366e-05	
16.096225	3.957065e-05	1.019407e-05	2.260433e-06	1.241742e-05	
16.097226	3.932740e-05	1.031849e-05	2.255881e-06	1.247792e-05	
16.098227	3.908343e-05	1.044438e-05	2.251181e-06	1.253510e-05	
16.099228	3.883948e-05	1.057165e-05	2.246370e-06	1.258892e-05	
16.100229	3.859625e-05	1.070022e-05	2.241487e-06	1.263930e-05	
16.101230	3.835447e-05	1.083000e-05	2.236569e-06	1.268620e-05	
16.102231	3.811486e-05	1.096090e-05	2.231655e-06	1.272957e-05	
16.103232	3.787812e-05	1.109284e-05	2.226783e-06	1.276934e-05	
16.104233	3.764500e-05	1.122573e-05	2.221991e-06	1.280546e-05	
16.105234	3.741619e-05	1.135948e-05	2.217318e-06	1.283787e-05	
16.106235	3.719243e-05	1.149400e-05	2.212801e-06	1.286652e-05	
16.107235	3.697444e-05	1.162921e-05	2.208479e-06	1.289135e-05	
16.108236	3.676292e-05	1.176502e-05	2.204390e-06	1.291231e-05	
16.109237	3.655861e-05	1.190135e-05	2.200572e-06	1.292934e-05	
16.110238	3.636222e-05	1.203811e-05	2.197063e-06	1.294238e-05	
16.111239	3.617446e-05	1.217521e-05	2.193901e-06	1.295138e-05	
16.112240	3.599607e-05	1.231256e-05	2.191126e-06	1.295628e-05	
16.113241	3.582775e-05	1.245008e-05	2.188774e-06	1.295703e-05	
16.114242	3.567024e-05	1.258768e-05	2.186884e-06	1.295357e-05	
16.115243	3.552424e-05	1.272527e-05	2.185494e-06	1.294585e-05	
16.116244	3.539048e-05	1.286277e-05	2.184643e-06	1.293380e-05	
16.117245	3.526967e-05	1.300009e-05	2.184368e-06	1.291738e-05	
16.118246	3.516254e-05	1.313715e-05	2.184708e-06	1.289652e-05	
16.119247	3.506981e-05	1.327385e-05	2.185700e-06	1.287118e-05	
16.120248	3.499219e-05	1.341011e-05	2.187384e-06	1.284129e-05	
16.121249	3.493040e-05	1.354584e-05	2.189797e-06	1.280680e-05	
16.122250	3.488517e-05	1.368096e-05	2.192978e-06	1.276766e-05	
16.123251	3.485721e-05	1.381538e-05	2.196964e-06	1.272380e-05	
16.124252	3.484724e-05	1.394901e-05	2.201793e-06	1.267518e-05	
16.125253	3.485591e-05	1.408177e-05	2.207499e-06	1.262174e-05	
16.126254	3.488315e-05	1.421352e-05	2.214063e-06	1.256361e-05	
16.127255	3.492854e-05	1.434413e-05	2.221438e-06	1.250095e-05	
16.128255	3.499167e-05	1.447346e-05	2.229579e-06	1.243394e-05	
16.129256	3.507210e-05	1.460137e-05	2.238440e-06	1.236277e-05	
16.130257	3.516941e-05	1.472772e-05	2.247975e-06	1.228761e-05	
16.131258	3.528318e-05	1.485236e-05	2.258139e-06	1.220864e-05	
16.132259	3.541298e-05	1.497517e-05	2.268886e-06	1.212605e-05	
16.133260	3.555839e-05	1.509599e-05	2.280170e-06	1.204001e-05	
16.134261	3.571898e-05	1.521469e-05	2.291945e-06	1.195070e-05	
16.135262	3.589433e-05	1.533113e-05	2.304165e-06	1.185829e-05	
16.136263	3.608401e-05	1.544517e-05	2.316785e-06	1.176298e-05	
16.137264	3.628761e-05	1.555666e-05	2.329758e-06	1.166494e-05	
16.138265	3.650469e-05	1.566548e-05	2.343040e-06	1.156435e-05	
16.139266	3.673484e-05	1.577147e-05	2.356583e-06	1.146138e-05	
16.140267	3.697762e-05	1.587450e-05	2.370343e-06	1.135623e-05	
16.141268	3.723261e-05	1.597442e-05	2.384274e-06	1.124906e-05	
16.142269	3.749940e-05	1.607111e-05	2.398329e-06	1.114005e-05	
16.143270	3.777755e-05	1.616441e-05	2.412463e-06	1.102940e-05	
16.144271	3.806663e-05	1.625419e-05	2.426631e-06	1.091726e-05	
16.145272	3.836624e-05	1.634030e-05	2.440786e-06	1.080383e-05	
16.146273	3.867593e-05	1.642261e-05	2.454882e-06	1.068929e-05	
16.147274	3.899530e-05	1.650098e-05	2.468874e-06	1.057381e-05	
16.148275	3.932390e-05	1.657527e-05	2.482717e-06	1.045757e-05	
16.149276	3.966132e-05	1.664533e-05	2.496363e-06	1.034075e-05	
16.150276	4.000714e-05	1.671103e-05	2.509768e-06	1.022354e-05	
16.151277	4.036093e-05	1.677223e-05	2.522885e-06	1.010611e-05	
16.152278	4.072226e-05	1.682878e-05	2.535669e-06	9.988633e-06	
16.153279	4.109071e-05	1.688055e-05	2.548074e-06	9.871300e-06	
16.154280	4.146586e-05	1.692739e-05	2.560054e-06	9.754286e-06	
16.155281	4.184729e-05	1.696917e-05	2.571564e-06	9.637771e-06	
16.156282	4.223456e-05	1.700575e-05	2.582557e-06	9.521934e-06	
16.157283	4.262725e-05	1.703698e-05	2.592988e-06	9.406954e-06	
16.158284	4.302494e-05	1.706273e-05	2.602811e-06	9.293012e-06	
16.159285	4.342721e-05	1.708286e-05	2.611980e-06	9.180286e-06	
16.160286	4.383363e-05	1.709722e-05	2.620450e-06	9.068955e-06	
16.161287	4.424377e-05	1.710567e-05	2.628174e-06	8.959200e-06	
16.162288	4.465722e-05	1.710808e-05	2.635107e-06	8.851199e-06	
16.163289	4.507354e-05	1.710431e-05	2.641203e-06	8.745133e-06	
16.164290	4.549232e-05	1.709421e-05	2.646416e-06	8.641179e-06	
16.165291	4.591312e-05	1.707765e-05	2.650700e-06	8.539519e-06	
16.166292	4.633553e-05	1.705448e-05	2.654010e-06	8.440331e-06	
16.167293	4.675912e-05	1.702456e-05	2.656300e-06	8.343794e-06	
16.168294	4.718347e-05	1.698776e-05	2.657524e-06	8.250089e-06	
16.169295	4.760814e-05	1.694394e-05	2.657636e-06	8.159394e-06	
16.170296	4.803273e-05	1.689295e-05	2.656591e-06	8.071888e-06	
16.171296	4.845679e-05	1.683465e-05	2.654342e-06	7.987753e-06	
16.172297	4.887992e-05	1.676891e-05	2.650844e-06	7.907165e-06	
16.173298	4.930167e-05	1.669559e-05	2.646051e-06	7.830306e-06	
16.174299	4.972164e-05	1.661453e-05	2.639917e-06	7.757355e-06	
16.175300	5.013941e-05	1.652565e-05	2.632405e-06	7.688472e-06	
16.176301	5.055465e-05	1.642916e-05	2.623542e-06	7.623685e-06	
16.177302	5.096710e-05	1.632539e-05	2.613385e-06	7.562957e-06	
16.178303	5.137648e-05	1.621470e-05	2.601989e-06	7.506254e-06	
16.179304	5.178252e-05	1.609744e-05	2.589411e-06	7.453539e-06	
16.180305	5.218494e-05	1.597396e-05	2.575708e-06	7.404775e-06	
16.181306	5.258347e-05	1.584459e-05	2.560936e-06	7.359928e-06	
16.182307	5.297783e-05	1.570970e-05	2.545151e-06	7.318962e-06	
16.183308	5.336774e-05	1.556963e-05	2.528411e-06	7.281840e-06	
16.184309	5.375295e-05	1.542472e-05	2.510771e-06	7.248527e-06	
16.185310	5.413316e-05	1.527534e-05	2.492289e-06	7.218987e-06	
16.186311	5.450810e-05	1.512181e-05	2.473020e-06	7.193185e-06	
16.187312	5.487751e-05	1.496451e-05	2.453021e-06	7.171083e-06	
16.188313	5.524110e-05	1.480376e-05	2.432349e-06	7.152647e-06	
16.189314	5.559860e-05	1.463992e-05	2.411060e-06	7.137840e-06	
16.190315	5.594974e-05	1.447335e-05	2.389210e-06	7.126627e-06	
16.191316	5.629425e-05	1.430438e-05	2.366856e-06	7.118972e-06	
16.192316	5.663184e-05	1.413336e-05	2.344055e-06	7.114839e-06	
16.193317	5.696224e-05	1.396065e-05	2.320863e-06	7.114192e-06	
16.194318	5.728519e-05	1.378659e-05	2.297336e-06	7.116995e-06	
16.195319	5.760039e-05	1.361153e-05	2.273532e-06	7.123213e-06	
16.196320	5.790759e-05	1.343582e-05	2.249505e-06	7.132809e-06	
16.197321	5.820650e-05	1.325981e-05	2.225314e-06	7.145748e-06	
16.198322	5.849686e-05	1.308384e-05	2.201014e-06	7.161994e-06	
16.199323	5.877838e-05	1.290827e-05	2.176662e-06	7.181511e-06	
16.200324	5.905079e-05	1.273344e-05	2.152315e-06	7.204263e-06	
16.201325	5.931382e-05	1.255970e-05	2.128028e-06	7.230214e-06	
16.202326	5.956720e-05	1.238740e-05	2.103858e-06	7.259329e-06	
16.203327	5.981064e-05	1.221688e-05	2.079863e-06	7.291572e-06	
16.204328	6.004388e-05	1.204851e-05	2.056098e-06	7.326906e-06	
16.205329	6.026663e-05	1.188261e-05	2.032619e-06	7.365296e-06	
16.206330	6.047863e-05	1.171955e-05	2.009484e-06	7.406706e-06	
16.207331	6.067961e-05	1.155967e-05	1.986749e-06	7.451101e-06	
16.208332	6.086928e-05	1.140332e-05	1.964470e-06	7.498443e-06	
16.209333	6.104737e-05	1.125085e-05	1.942704e-06	7.548699e-06	
16.210334	6.121360e-05	1.110261e-05	1.921507e-06	7.601831e-06	
16.211335	6.136771e-05	1.095893e-05	1.900936e-06	7.657803e-06	
16.212336	6.150942e-05	1.082019e-05	1.881047e-06	7.716581e-06	
16.213337	6.163845e-05	1.068671e-05	1.861896e-06	7.778128e-06	
16.214337	6.175454e-05	1.055885e-05	1.843541e-06	7.842408e-06	
16.215338	6.185739e-05	1.043696e-05	1.826038e-06	7.909385e-06	
16.216339	6.194675e-05	1.032139e-05	1.809442e-06	7.979024e-06	
16.217340	6.202233e-05	1.021248e-05	1.793812e-06	8.051288e-06	
16.218341	6.208387e-05	1.011059e-05	1.779202e-06	8.126143e-06	
16.219342	6.213108e-05	1.001605e-05	1.765670e-06	8.203551e-06	
16.220343	6.216369e-05	9.929229e-06	1.753272e-06	8.283478e-06	
16.221344	6.218143e-05	9.850464e-06	1.742065e-06	8.365886e-06	
16.222345	6.218403e-05	9.780105e-06	1.732105e-06	8.450742e-06	
16.223346	6.217120e-05	9.718502e-06	1.723449e-06	8.538007e-06	
16.224347	6.214268e-05	9.666002e-06	1.716152e-06	8.627648e-06	
16.225348	6.209825e-05	9.622887e-06	1.710262e-06	8.719612e-06	
16.226349	6.203807e-05	9.589007e-06	1.705761e-06	8.813755e-06	
16.227350	6.196247e-05	9.564040e-06	1.702607e-06	8.909891e-06	
16.228351	6.187176e-05	9.547661e-06	1.700755e-06	9.007837e-06	
16.229352	6.176626e-05	9.539548e-06	1.700164e-06	9.107407e-06	
16.230353	6.164630e-05	9.539377e-06	1.700789e-06	9.208417e-06	
16.231354	6.151219e-05	9.546825e-06	1.702587e-06	9.310683e-06	
16.232355	6.136426e-05	9.561569e-06	1.705516e-06	9.414021e-06	
16.233356	6.120282e-05	9.583285e-06	1.709532e-06	9.518245e-06	
16.234357	6.102819e-05	9.611650e-06	1.714593e-06	9.623172e-06	
16.235357	6.084069e-05	9.646340e-06	1.720654e-06	9.728617e-06	
16.236358	6.064065e-05	9.687033e-06	1.727673e-06	9.834396e-06	
16.237359	6.042837e-05	9.733405e-06	1.735608e-06	9.940323e-06	
16.238360	6.020419e-05	9.785132e-06	1.744413e-06	1.004622e-05	
16.239361	5.996842e-05	9.841892e-06	1.754047e-06	1.015189e-05	
16.240362	5.972138e-05	9.903361e-06	1.764467e-06	1.025716e-05	
16.241363	5.946338e-05	9.969216e-06	1.775628e-06	1.036184e-05	
16.242364	5.919476e-05	1.003913e-05	1.787489e-06	1.046574e-05	
16.243365	5.891583e-05	1.011279e-05	1.800005e-06	1.056869e-05	
16.244366	5.862691e-05	1.018986e-05	1.813135e-06	1.067050e-05	
16.245367	5.832831e-05	1.027003e-05	1.826834e-06	1.077098e-05	
16.246368	5.802036e-05	1.035296e-05	1.841059e-06	1.086995e-05	
16.247369	5.770338e-05	1.043834e-05	1.855768e-06	1.096722e-05	
16.248370	5.737769e-05	1.052584e-05	1.870917e-06	1.106262e-05	
16.249371	5.704361e-05	1.061514e-05	1.886463e-06	1.115595e-05	
16.250372	5.670145e-05	1.070592e-05	1.902363e-06	1.124703e-05	
16.251373	5.635154e-05	1.079785e-05	1.918574e-06	1.133567e-05	
16.252374	5.599420e-05	1.089061e-05	1.935052e-06	1.142170e-05	
16.253375	5.562974e-05	1.098387e-05	1.951755e-06	1.150493e-05	
16.254376	5.525849e-05	1.107732e-05	1.968640e-06	1.158517e-05	
16.255377	5.488077e-05	1.117063e-05	1.985662e-06	1.166224e-05	
16.256378	5.449688e-05	1.126347e-05	2.002780e-06	1.173596e-05	
16.257378	5.410717e-05	1.135553e-05	2.019950e-06	1.180613e-05	
16.258379	5.371194e-05	1.144647e-05	2.037128e-06	1.187258e-05	
16.259380	5.331151e-05	1.153598e-05	2.054272e-06	1.193513e-05	
16.260381	5.290620e-05	1.162374e-05	2.071339e-06	1.199357e-05	
16.261382	5.249634e-05	1.170941e-05	2.088285e-06	1.204775e-05	
16.262383	5.208224e-05	1.179268e-05	2.105068e-06	1.209745e-05	
16.263384	5.166423e-05	1.187322e-05	2.121643e-06	1.214252e-05	
16.264385	5.124262e-05	1.195071e-05	2.137969e-06	1.218275e-05	
16.265386	5.081773e-05	1.202483e-05	2.154001e-06	1.221796e-05	
16.266387	5.038988e-05	1.209525e-05	2.169697e-06	1.224798e-05	
16.267388	4.995939e-05	1.216165e-05	2.185014e-06	1.227261e-05	
16.268389	4.952658e-05	1.222371e-05	2.199908e-06	1.229167e-05	
16.269390	4.909178e-05	1.228110e-05	2.214337e-06	1.230498e-05	
16.270391	4.865529e-05	1.233349e-05	2.228257e-06	1.231235e-05	
16.271392	4.821745e-05	1.238058e-05	2.241624e-06	1.231360e-05	
16.272393	4.777856e-05	1.242203e-05	2.254397e-06	1.230854e-05	
16.273394	4.733895e-05	1.245752e-05	2.266531e-06	1.229699e-05	
16.274395	4.689895e-05	1.248672e-05	2.277984e-06	1.227877e-05	
16.275396	4.645882e-05	1.250940e-05	2.288719e-06	1.225374e-05	
16.276397	4.601861e-05	1.252578e-05	2.298736e-06	1.222207e-05	
16.277398	4.557829e-05	1.253625e-05	2.308046e-06	1.218404e-05	
16.278398	4.513782e-05	1.254119e-05	2.316663e-06	1.213992e-05	
16.279399	4.469717e-05	1.254099e-05	2.324599e-06	1.208998e-05	
16.280400	4.425631e-05	1.253605e-05	2.331866e-06	1.203450e-05	
16.281401	4.381518e-05	1.252673e-05	2.338477e-06	1.197376e-05	
16.282402	4.337378e-05	1.251344e-05	2.344444e-06	1.190803e-05	
16.283403	4.293204e-05	1.249656e-05	2.349779e-06	1.183757e-05	
16.284404	4.248995e-05	1.247647e-05	2.354495e-06	1.176268e-05	
16.285405	4.204746e-05	1.245357e-05	2.358604e-06	1.168361e-05	
16.286406	4.160454e-05	1.242823e-05	2.362119e-06	1.160064e-05	
16.287407	4.116116e-05	1.240085e-05	2.365052e-06	1.151406e-05	
16.288408	4.071728e-05	1.237181e-05	2.367415e-06	1.142412e-05	
16.289409	4.027286e-05	1.234151e-05	2.369220e-06	1.133112e-05	
16.290410	3.982787e-05	1.231032e-05	2.370481e-06	1.123531e-05	
16.291411	3.938227e-05	1.227863e-05	2.371210e-06	1.113698e-05	
16.292412	3.893603e-05	1.224684e-05	2.371418e-06	1.103639e-05	
16.293413	3.848912e-05	1.221532e-05	2.371119e-06	1.093383e-05	
16.294414	3.804149e-05	1.218447e-05	2.370324e-06	1.082957e-05	
16.295415	3.759312e-05	1.215466e-05	2.369047e-06	1.072387e-05	
16.296416	3.714396e-05	1.212630e-05	2.367298e-06	1.061702e-05	
16.297417	3.669399e-05	1.209976e-05	2.365092e-06	1.050929e-05	
16.298418	3.624316e-05	1.207543e-05	2.362440e-06	1.040096e-05	
16.299418	3.579144e-05	1.205370e-05	2.359355e-06	1.029229e-05	
16.300419	3.533880e-05	1.203496e-05	2.355849e-06	1.018356e-05	
16.301420	3.488520e-05	1.201959e-05	2.351934e-06	1.007505e-05	
16.302421	3.443060e-05	1.200797e-05	2.347623e-06	9.967026e-06	
16.303422	3.397498e-05	1.200051e-05	2.342928e-06	9.859767e-06	
16.304423	3.351829e-05	1.199758e-05	2.337862e-06	9.753545e-06	
16.305424	3.306050e-05	1.199956e-05	2.332437e-06	9.648636e-06	
16.306425	3.260157e-05	1.200686e-05	2.326665e-06	9.545313e-06	
16.307426	3.214148e-05	1.201984e-05	2.320559e-06	9.443850e-06	
16.308427	3.168017e-05	1.203891e-05	2.314131e-06	9.344521e-06	
16.309428	3.121763e-05	1.206445e-05	2.307394e-06	9.247600e-06	
16.310429	3.075381e-05	1.209683e-05	2.300359e-06	9.153362e-06	
16.311430	3.028867e-05	1.213646e-05	2.293040e-06	9.062081e-06	
16.312431	2.982219e-05	1.218372e-05	2.285449e-06	8.974030e-06	
16.313432	2.935433e-05	1.223900e-05	2.277598e-06	8.889484e-06	
16.314433	2.888505e-05	1.230267e-05	2.269499e-06	8.808716e-06	
16.315434	2.841431e-05	1.237513e-05	2.261165e-06	8.732002e-06	
16.316435	2.794209e-05	1.245677e-05	2.252608e-06	8.659615e-06	
16.317436	2.746834e-05	1.254797e-05	2.243842e-06	8.591829e-06	
16.318437	2.699303e-05	1.264913e-05	2.234877e-06	8.528918e-06	
16.319438	2.651613e-05	1.276061e-05	2.225727e-06	8.471157e-06	
16.320439	2.603760e-05	1.288282e-05	2.216403e-06	8.418819e-06	
16.321439	2.555740e-05	1.301614e-05	2.206919e-06	8.372179e-06	
16.322440	2.507551e-05	1.316096e-05	2.197286e-06	8.331511e-06	
16.323441	2.459188e-05	1.331766e-05	2.187518e-06	8.297088e-06	
16.324442	2.410647e-05	1.348663e-05	2.177626e-06	8.269185e-06	
16.325443	2.361931e-05	1.366813e-05	2.167624e-06	8.248003e-06	
16.326444	2.313060e-05	1.386182e-05	2.157536e-06	8.233387e-06	
16.327445	2.264065e-05	1.406718e-05	2.147389e-06	8.225072e-06	
16.328446	2.214972e-05	1.428367e-05	2.137206e-06	8.222797e-06	
16.329447	2.165813e-05	1.451078e-05	2.127016e-06	8.226299e-06	
16.330448	2.116614e-05	1.474797e-05	2.116842e-06	8.235313e-06	
16.331449	2.067405e-05	1.499472e-05	2.106713e-06	8.249578e-06	
16.332450	2.018215e-05	1.525051e-05	2.096652e-06	8.268830e-06	
16.333451	1.969071e-05	1.551481e-05	2.086687e-06	8.292807e-06	
16.334452	1.920004e-05	1.578709e-05	2.076843e-06	8.321245e-06	
16.335453	1.871042e-05	1.606683e-05	2.067146e-06	8.353881e-06	
16.336454	1.822213e-05	1.635350e-05	2.057621e-06	8.390452e-06	
16.337455	1.773547e-05	1.664657e-05	2.048296e-06	8.430695e-06	
16.338456	1.725072e-05	1.694553e-05	2.039196e-06	8.474347e-06	
16.339457	1.676816e-05	1.724983e-05	2.030346e-06	8.521146e-06	
16.340458	1.628809e-05	1.755897e-05	2.021772e-06	8.570827e-06	
16.341459	1.581079e-05	1.787241e-05	2.013502e-06	8.623129e-06	
16.342459	1.533655e-05	1.818962e-05	2.005559e-06	8.677788e-06	
16.343460	1.486567e-05	1.851009e-05	1.997971e-06	8.734541e-06	
16.344461	1.439841e-05	1.883328e-05	1.990763e-06	8.793124e-06	
16.345462	1.393508e-05	1.915866e-05	1.983961e-06	8.853276e-06	
16.346463	1.347596e-05	1.948573e-05	1.977591e-06	8.914733e-06	
16.347464	1.302134e-05	1.981393e-05	1.971680e-06	8.977232e-06	
16.348465	1.257150e-05	2.014276e-05	1.966252e-06	9.040510e-06	
16.349466	1.212673e-05	2.047169e-05	1.961333e-06	9.104303e-06	
16.350467	1.168733e-05	2.080018e-05	1.956951e-06	9.168350e-06	
16.351468	1.125357e-05	2.112772e-05	1.953130e-06	9.232386e-06	
16.352469	1.082575e-05	2.145377e-05	1.949896e-06	9.296149e-06	
16.353470	1.040415e-05	2.177782e-05	1.947276e-06	9.359376e-06	
16.354471	9.989058e-06	2.209933e-05	1.945295e-06	9.421804e-06	
16.355472	9.580766e-06	2.241779e-05	1.943980e-06	9.483170e-06	
16.356473	9.179560e-06	2.273265e-05	1.943355e-06	9.543210e-06	
16.357474	8.785725e-06	2.304341e-05	1.943448e-06	9.601663e-06	
16.358475	8.399551e-06	2.334953e-05	1.944283e-06	9.658263e-06	
16.359476	8.021325e-06	2.365048e-05	1.945888e-06	9.712750e-06	
16.360477	7.651334e-06	2.394575e-05	1.948287e-06	9.764859e-06	
16.361478	7.289865e-06	2.423480e-05	1.951506e-06	9.814328e-06	
16.362479	6.937206e-06	2.451711e-05	1.955573e-06	9.860894e-06	
16.363480	6.593645e-06	2.479216e-05	1.960512e-06	9.904293e-06	
16.364480	6.259468e-06	2.505941e-05	1.966349e-06	9.944263e-06	
16.365481	5.934964e-06	2.531834e-05	1.973110e-06	9.980541e-06	
16.366482	5.620420e-06	2.556843e-05	1.980822e-06	1.001286e-05	
16.367483	5.316124e-06	2.580915e-05	1.989510e-06	1.004097e-05	
16.368484	5.022362e-06	2.603998e-05	1.999200e-06	1.006459e-05	
16.369485	4.739423e-06	2.626038e-05	2.009918e-06	1.008347e-05	
16.370486	4.467594e-06	2.646983e-05	2.021689e-06	1.009734e-05	
16.371487	4.207162e-06	2.666781e-05	2.034541e-06	1.010594e-05	
16.372488	3.958415e-06	2.685380e-05	2.048498e-06	1.010900e-05	
16.373489	3.721641e-06	2.702725e-05	2.063587e-06	1.010627e-05	
16.374490	3.497126e-06	2.718766e-05	2.079833e-06	1.009748e-05	
16.375491	3.285064e-06	2.733460e-05	2.097247e-06	1.008243e-05	
16.376492	3.085255e-06	2.746817e-05	2.115777e-06	1.006121e-05	
16.377493	2.897393e-06	2.758855e-05	2.135353e-06	1.003395e-05	
16.378494	2.721173e-06	2.769597e-05	2.155906e-06	1.000082e-05	
16.379495	2.556291e-06	2.779063e-05	2.177366e-06	9.961966e-06	
16.380496	2.402442e-06	2.787272e-05	2.199663e-06	9.917533e-06	
16.381497	2.259320e-06	2.794247e-05	2.222729e-06	9.867675e-06	
16.382498	2.126622e-06	2.800008e-05	2.246494e-06	9.812543e-06	
16.383499	2.004041e-06	2.804574e-05	2.270887e-06	9.752287e-06	
16.384500	1.891274e-06	2.807968e-05	2.295841e-06	9.687058e-06	
16.385500	1.788015e-06	2.810209e-05	2.321286e-06	9.617007e-06	
16.386501	1.693960e-06	2.811319e-05	2.347151e-06	9.542284e-06	
16.387502	1.608803e-06	2.811317e-05	2.373368e-06	9.463041e-06	
16.388503	1.532241e-06	2.810225e-05	2.399867e-06	9.379429e-06	
16.389504	1.463967e-06	2.808063e-05	2.426578e-06	9.291596e-06	
16.390505	1.403677e-06	2.804852e-05	2.453433e-06	9.199696e-06	
16.391506	1.351067e-06	2.800612e-05	2.480362e-06	9.103877e-06	
16.392507	1.305830e-06	2.795365e-05	2.507294e-06	9.004292e-06	
16.393508	1.267664e-06	2.789130e-05	2.534162e-06	8.901090e-06	
16.394509	1.236262e-06	2.781928e-05	2.560895e-06	8.794423e-06	
16.395510	1.211320e-06	2.773781e-05	2.587424e-06	8.684441e-06	
16.396511	1.192532e-06	2.764708e-05	2.613680e-06	8.571295e-06	
16.397512	1.179595e-06	2.754731e-05	2.639593e-06	8.455135e-06	
16.398513	1.172203e-06	2.743870e-05	2.665093e-06	8.336113e-06	
16.399514	1.170052e-06	2.732145e-05	2.690111e-06	8.214378e-06	
16.400515	1.172835e-06	2.719577e-05	2.714578e-06	8.090083e-06	
16.401516	1.180250e-06	2.706188e-05	2.738425e-06	7.963377e-06	
16.402517	1.191990e-06	2.691996e-05	2.761581e-06	7.834411e-06	
16.403518	1.207751e-06	2.677025e-05	2.783978e-06	7.703337e-06	
16.404519	1.227229e-06	2.661293e-05	2.805545e-06	7.570304e-06	
16.405520	1.250117e-06	2.644821e-05	2.826214e-06	7.435463e-06	
16.406520	1.276112e-06	2.627631e-05	2.845915e-06	7.298966e-06	
16.407521	1.304908e-06	2.609742e-05	2.864579e-06	7.160962e-06	
16.408522	1.336201e-06	2.591176e-05	2.882135e-06	7.021603e-06	
16.409523	1.369685e-06	2.571953e-05	2.898515e-06	6.881040e-06	
16.410524	1.405057e-06	2.552094e-05	2.913650e-06	6.739422e-06	
16.411525	1.442010e-06	2.531619e-05	2.927469e-06	6.596901e-06	
16.412526	1.480241e-06	2.510549e-05	2.939904e-06	6.453628e-06	
16.413527	1.519443e-06	2.488904e-05	2.950884e-06	6.309753e-06	
16.414528	1.559314e-06	2.466706e-05	2.960341e-06	6.165427e-06	
16.415529	1.599547e-06	2.443975e-05	2.968205e-06	6.020801e-06	
16.416530	1.639837e-06	2.420732e-05	2.974406e-06	5.876025e-06	
16.417531	1.679881e-06	2.396997e-05	2.978876e-06	5.731250e-06	
16.418532	1.719372e-06	2.372790e-05	2.981543e-06	5.586627e-06	
16.419533	1.758007e-06	2.348133e-05	2.982341e-06	5.442307e-06	
16.420534	1.795480e-06	2.323047e-05	2.981198e-06	5.298440e-06	
16.421535	1.831486e-06	2.297551e-05	2.978045e-06	5.155177e-06	
16.422536	1.865721e-06	2.271667e-05	2.972813e-06	5.012669e-06	
16.423537	1.897880e-06	2.245415e-05	2.965432e-06	4.871066e-06	
16.424538	1.927657e-06	2.218815e-05	2.955833e-06	4.730520e-06	
16.425539	1.954832e-06	2.191896e-05	2.943986e-06	4.591177e-06	
16.426540	1.979490e-06	2.164712e-05	2.930000e-06	4.453174e-06	
16.427541	2.001784e-06	2.137321e-05	2.914018e-06	4.316643e-06	
16.428541	2.021869e-06	2.109784e-05	2.896182e-06	4.181717e-06	
16.429542	2.039898e-06	2.082159e-05	2.876636e-06	4.048529e-06	
16.430543	2.056026e-06	2.054508e-05	2.855521e-06	3.917211e-06	
16.431544	2.070406e-06	2.026889e-05	2.832980e-06	3.787898e-06	
16.432545	2.083193e-06	1.999362e-05	2.809156e-06	3.660721e-06	
16.433546	2.094542e-06	1.971987e-05	2.784190e-06	3.535814e-06	
16.434547	2.104604e-06	1.944823e-05	2.758227e-06	3.413309e-06	
16.435548	2.113536e-06	1.917929e-05	2.731407e-06	3.293340e-06	
16.436549	2.121491e-06	1.891366e-05	2.703873e-06	3.176039e-06	
16.437550	2.128623e-06	1.865194e-05	2.675768e-06	3.061539e-06	
16.438551	2.135086e-06	1.839471e-05	2.647235e-06	2.949973e-06	
16.439552	2.141034e-06	1.814257e-05	2.618416e-06	2.841474e-06	
16.440553	2.146621e-06	1.789613e-05	2.589453e-06	2.736174e-06	
16.441554	2.152001e-06	1.765597e-05	2.560488e-06	2.634208e-06	
16.442555	2.157329e-06	1.742269e-05	2.531666e-06	2.535707e-06	
16.443556	2.162758e-06	1.719689e-05	2.503126e-06	2.440804e-06	
16.444557	2.168443e-06	1.697917e-05	2.475014e-06	2.349633e-06	
16.445558	2.174537e-06	1.677011e-05	2.447470e-06	2.262327e-06	
16.446559	2.181195e-06	1.657033e-05	2.420637e-06	2.179017e-06	
16.447560	2.188570e-06	1.638041e-05	2.394658e-06	2.099838e-06	
16.448561	2.196817e-06	1.620094e-05	2.369675e-06	2.024921e-06	
16.449561	2.206090e-06	1.603254e-05	2.345831e-06	1.954401e-06	
16.450562	2.216542e-06	1.587578e-05	2.323269e-06	1.888409e-06	
16.451563	2.228329e-06	1.573128e-05	2.302129e-06	1.827079e-06	
16.452564	2.241603e-06	1.559962e-05	2.282556e-06	1.770543e-06	
16.453565	2.256519e-06	1.548140e-05	2.264692e-06	1.718935e-06	
16.454566	2.273231e-06	1.537722e-05	2.248679e-06	1.672387e-06	
16.455567	2.291893e-06	1.528767e-05	2.234660e-06	1.631033e-06	
16.456568	2.312660e-06	1.521335e-05	2.222776e-06	1.595004e-06	
16.457569	2.335684e-06	1.515485e-05	2.213171e-06	1.564435e-06	
16.458570	2.361121e-06	1.511278e-05	2.205988e-06	1.539457e-06	
16.459571	2.389124e-06	1.508773e-05	2.201367e-06	1.520205e-06	
16.460572	2.419848e-06	1.508029e-05	2.199453e-06	1.506810e-06	
16.461573	2.453446e-06	1.509106e-05	2.200388e-06	1.499405e-06	
16.462574	2.490072e-06	1.512064e-05	2.204313e-06	1.498125e-06	
16.463575	2.529881e-06	1.516963e-05	2.211372e-06	1.503100e-06	
16.464576	2.573027e-06	1.523861e-05	2.221707e-06	1.514465e-06	
16.465577	2.619663e-06	1.532819e-05	2.235460e-06	1.532352e-06	
16.466578	2.669944e-06	1.543896e-05	2.252775e-06	1.556894e-06	
16.467579	2.724024e-06	1.557152e-05	2.273792e-06	1.588224e-06	
16.468580	2.782056e-06	1.572646e-05	2.298656e-06	1.626475e-06	
16.469581	2.844196e-06	1.590439e-05	2.327508e-06	1.671780e-06	
16.470582	2.910596e-06	1.610589e-05	2.360491e-06	1.724271e-06	
16.471582	2.981411e-06	1.633156e-05	2.397747e-06	1.784082e-06	
16.472583	3.056796e-06	1.658201e-05	2.439420e-06	1.851345e-06	
16.473584	3.136903e-06	1.685782e-05	2.485650e-06	1.926194e-06	
16.474585	3.221888e-06	1.715959e-05	2.536582e-06	2.008761e-06	
16.475586	3.311805e-06	1.748753e-05	2.592262e-06	2.099056e-06	
16.476587	3.406398e-06	1.784060e-05	2.652443e-06	2.196697e-06	
16.477588	3.505348e-06	1.821752e-05	2.716816e-06	2.301228e-06	
16.478589	3.608338e-06	1.861703e-05	2.785075e-06	2.412192e-06	
16.479590	3.715049e-06	1.903783e-05	2.856911e-06	2.529130e-06	
16.480591	3.825163e-06	1.947865e-05	2.932017e-06	2.651586e-06	
16.481592	3.938362e-06	1.993822e-05	3.010086e-06	2.779101e-06	
16.482593	4.054327e-06	2.041526e-05	3.090810e-06	2.911219e-06	
16.483594	4.172740e-06	2.090849e-05	3.173881e-06	3.047482e-06	
16.484595	4.293284e-06	2.141663e-05	3.258992e-06	3.187433e-06	
16.485596	4.415639e-06	2.193840e-05	3.345835e-06	3.330614e-06	
16.486597	4.539489e-06	2.247253e-05	3.434103e-06	3.476567e-06	
16.487598	4.664513e-06	2.301773e-05	3.523488e-06	3.624836e-06	
16.488599	4.790395e-06	2.357274e-05	3.613683e-06	3.774962e-06	
16.489600	4.916816e-06	2.413627e-05	3.704380e-06	3.926489e-06	
16.490601	5.043458e-06	2.470705e-05	3.795272e-06	4.078959e-06	
16.491602	5.170003e-06	2.528380e-05	3.886050e-06	4.231914e-06	
16.492602	5.296132e-06	2.586524e-05	3.976408e-06	4.384898e-06	
16.493603	5.421527e-06	2.645009e-05	4.066038e-06	4.537452e-06	
16.494604	5.545870e-06	2.703707e-05	4.154632e-06	4.689119e-06	
16.495605	5.668844e-06	2.762492e-05	4.241883e-06	4.839442e-06	
16.496606	5.790129e-06	2.821234e-05	4.327483e-06	4.987963e-06	
16.497607	5.909407e-06	2.879807e-05	4.411125e-06	5.134225e-06	
16.498608	6.026361e-06	2.938082e-05	4.492501e-06	5.277771e-06	
16.499609	6.140671e-06	2.995932e-05	4.571304e-06	5.418143e-06	
16.500610	6.252021e-06	3.053229e-05	4.647226e-06	5.554883e-06	
16.501611	6.360091e-06	3.109845e-05	4.719959e-06	5.687534e-06	
16.502612	6.464563e-06	3.165653e-05	4.789196e-06	5.815639e-06	
16.503613	6.565120e-06	3.220524e-05	4.854630e-06	5.938740e-06	
16.504614	6.661442e-06	3.274331e-05	4.915952e-06	6.056380e-06	
16.505615	6.753213e-06	3.326947e-05	4.972856e-06	6.168101e-06	
16.506616	6.840113e-06	3.378243e-05	5.025034e-06	6.273446e-06	
16.507617	6.921824e-06	3.428091e-05	5.072177e-06	6.371958e-06	
16.508618	6.998029e-06	3.476364e-05	5.113980e-06	6.463178e-06	
16.509619	7.068408e-06	3.522935e-05	5.150133e-06	6.546651e-06	
16.510620	7.132645e-06	3.567675e-05	5.180330e-06	6.621917e-06	
16.511621	7.190420e-06	3.610456e-05	5.204263e-06	6.688520e-06	
16.512622	7.241415e-06	3.651151e-05	5.221625e-06	6.746003e-06	
16.513622	7.285312e-06	3.689633e-05	5.232107e-06	6.793907e-06	
16.514623	7.321794e-06	3.725772e-05	5.235403e-06	6.831776e-06	
16.515624	7.350541e-06	3.759442e-05	5.231204e-06	6.859151e-06	
16.516625	7.371235e-06	3.790515e-05	5.219204e-06	6.875576e-06	
16.517626	7.383559e-06	3.818863e-05	5.199095e-06	6.880593e-06	
16.518627	7.387194e-06	3.844359e-05	5.170568e-06	6.873745e-06	
16.519628	7.381822e-06	3.866873e-05	5.133318e-06	6.854574e-06	
16.520629	7.367125e-06	3.886280e-05	5.087035e-06	6.822623e-06	
16.521630	7.342784e-06	3.902450e-05	5.031413e-06	6.777434e-06	
16.522631	7.308482e-06	3.915257e-05	4.966144e-06	6.718550e-06	
16.523632	7.263899e-06	3.924572e-05	4.890920e-06	6.645513e-06	
16.524633	7.208719e-06	3.930268e-05	4.805434e-06	6.557867e-06	
16.525634	7.142871e-06	3.932287e-05	4.709621e-06	6.455482e-06	
16.526635	7.066967e-06	3.930768e-05	4.604078e-06	6.339129e-06	
16.527636	6.981736e-06	3.925878e-05	4.489517e-06	6.209733e-06	
16.528637	6.887905e-06	3.917789e-05	4.366649e-06	6.068218e-06	
16.529638	6.786202e-06	3.906671e-05	4.236185e-06	5.915510e-06	
16.530639	6.677356e-06	3.892693e-05	4.098836e-06	5.752532e-06	
16.531640	6.562094e-06	3.876025e-05	3.955313e-06	5.580210e-06	
16.532641	6.441144e-06	3.856838e-05	3.806328e-06	5.399469e-06	
16.533642	6.315236e-06	3.835301e-05	3.652592e-06	5.211232e-06	
16.534643	6.185096e-06	3.811584e-05	3.494816e-06	5.016425e-06	
16.535643	6.051452e-06	3.785857e-05	3.333712e-06	4.815972e-06	
16.536644	5.915034e-06	3.758291e-05	3.169990e-06	4.610798e-06	
16.537645	5.776569e-06	3.729054e-05	3.004361e-06	4.401828e-06	
16.538646	5.636784e-06	3.698318e-05	2.837537e-06	4.189986e-06	
16.539647	5.496409e-06	3.666252e-05	2.670230e-06	3.976197e-06	
16.540648	5.356170e-06	3.633026e-05	2.503149e-06	3.761386e-06	
16.541649	5.216797e-06	3.598809e-05	2.337008e-06	3.546477e-06	
16.542650	5.079017e-06	3.563773e-05	2.172515e-06	3.332396e-06	
16.543651	4.943558e-06	3.528086e-05	2.010384e-06	3.120066e-06	
16.544652	4.811149e-06	3.491920e-05	1.851325e-06	2.910412e-06	
16.545653	4.682517e-06	3.455443e-05	1.696049e-06	2.704360e-06	
16.546654	4.558391e-06	3.418825e-05	1.545267e-06	2.502833e-06	
16.547655	4.439498e-06	3.382238e-05	1.399692e-06	2.306757e-06	
16.548656	4.326567e-06	3.345850e-05	1.260033e-06	2.117056e-06	
16.549657	4.220325e-06	3.309832e-05	1.127002e-06	1.934655e-06	
16.550658	4.121501e-06	3.274354e-05	1.001310e-06	1.760479e-06	
16.551659	4.030824e-06	3.239584e-05	8.836691e-07	1.595451e-06	
16.552660	3.949020e-06	3.205695e-05	7.747897e-07	1.440498e-06	
16.553661	3.876817e-06	3.172855e-05	6.753832e-07	1.296543e-06	
16.554662	3.814945e-06	3.141234e-05	5.861608e-07	1.164511e-06	
16.555663	3.764132e-06	3.111003e-05	5.078337e-07	1.045327e-06	
16.556663	3.725104e-06	3.082331e-05	4.411131e-07	9.399162e-07	
16.557664	3.698590e-06	3.055388e-05	3.867101e-07	8.492024e-07	
16.558665	3.685319e-06	3.030345e-05	3.453361e-07	7.741105e-07	
16.559666	3.686018e-06	3.007371e-05	3.177022e-07	7.155653e-07	
16.560667	3.701416e-06	2.986636e-05	3.045196e-07	6.744914e-07	
16.561668	3.732240e-06	2.968310e-05	3.064994e-07	6.518135e-07	
16.562669	3.779218e-06	2.952563e-05	3.243530e-07	6.484563e-07	
16.563670	3.843080e-06	2.939566e-05	3.587915e-07	6.653445e-07	
16.564671	3.924552e-06	2.929487e-05	4.105261e-07	7.034028e-07	
16.565672	4.024362e-06	2.922497e-05	4.802680e-07	7.635558e-07	
16.566673	4.143240e-06	2.918767e-05	5.687284e-07	8.467282e-07	
16.567674	4.281912e-06	2.918465e-05	6.766186e-07	9.538448e-07	
16.568675	4.441108e-06	2.921762e-05	8.046496e-07	1.085830e-06	
16.569676	4.621554e-06	2.928828e-05	9.535328e-07	1.243609e-06	
16.570677	4.823980e-06	2.939832e-05	1.123979e-06	1.428106e-06	
16.571678	5.049113e-06	2.954945e-05	1.316700e-06	1.640246e-06	
16.572679	5.297680e-06	2.974337e-05	1.532407e-06	1.880953e-06	
16.573680	5.570412e-06	2.998178e-05	1.771811e-06	2.151152e-06	
16.574681	5.868033e-06	3.026637e-05	2.035621e-06	2.451767e-06	
16.575682	6.190773e-06	3.059784e-05	2.324068e-06	2.783121e-06	
16.576683	6.537669e-06	3.097447e-05	2.636236e-06	3.144107e-06	
16.577684	6.907584e-06	3.139422e-05	2.971036e-06	3.533406e-06	
16.578684	7.299380e-06	3.185501e-05	3.327383e-06	3.949698e-06	
16.579685	7.711918e-06	3.235479e-05	3.704191e-06	4.391665e-06	
16.580686	8.144061e-06	3.289150e-05	4.100372e-06	4.857987e-06	
16.581687	8.594671e-06	3.346308e-05	4.514840e-06	5.347345e-06	
16.582688	9.062609e-06	3.406745e-05	4.946509e-06	5.858421e-06	
16.583689	9.546738e-06	3.470258e-05	5.394293e-06	6.389894e-06	
16.584690	1.004592e-05	3.536638e-05	5.857104e-06	6.940447e-06	
16.585691	1.055902e-05	3.605681e-05	6.333857e-06	7.508760e-06	
16.586692	1.108489e-05	3.677180e-05	6.823464e-06	8.093513e-06	
16.587693	1.162240e-05	3.750930e-05	7.324839e-06	8.693389e-06	
16.588694	1.217042e-05	3.826723e-05	7.836897e-06	9.307067e-06	
16.589695	1.272779e-05	3.904354e-05	8.358550e-06	9.933230e-06	
16.590696	1.329340e-05	3.983617e-05	8.888711e-06	1.057056e-05	
16.591697	1.386609e-05	4.064306e-05	9.426295e-06	1.121773e-05	
16.592698	1.444472e-05	4.146214e-05	9.970215e-06	1.187343e-05	
16.593699	1.502817e-05	4.229136e-05	1.051938e-05	1.253633e-05	
16.594700	1.561530e-05	4.312866e-05	1.107272e-05	1.320513e-05	
16.595701	1.620496e-05	4.397197e-05	1.162913e-05	1.387849e-05	
16.596702	1.679601e-05	4.481924e-05	1.218752e-05	1.455511e-05	
16.597703	1.738733e-05	4.566839e-05	1.274683e-05	1.523365e-05	
16.598704	1.797777e-05	4.651738e-05	1.330594e-05	1.591281e-05	
16.599704	1.856619e-05	4.736415e-05	1.386379e-05	1.659126e-05	
16.600705	1.915145e-05	4.820662e-05	1.441929e-05	1.726769e-05	
16.601706	1.973243e-05	4.904274e-05	1.497134e-05	1.794077e-05	
16.602707	2.030797e-05	4.987045e-05	1.551886e-05	1.860918e-05	
16.603708	2.087695e-05	5.068769e-05	1.606077e-05	1.927162e-05	
16.604709	2.143822e-05	5.149240e-05	1.659597e-05	1.992675e-05	
16.605710	2.199065e-05	5.228251e-05	1.712339e-05	2.057325e-05	
16.606711	2.253309e-05	5.305597e-05	1.764193e-05	2.120982e-05	
16.607712	2.306441e-05	5.381072e-05	1.815051e-05	2.183513e-05	
16.608713	2.358348e-05	5.454468e-05	1.864804e-05	2.244786e-05	
16.609714	2.408915e-05	5.525582e-05	1.913344e-05	2.304670e-05	
16.610715	2.458029e-05	5.594205e-05	1.960561e-05	2.363031e-05	
16.611716	2.505575e-05	5.660133e-05	2.006348e-05	2.419739e-05	
16.612717	2.551441e-05	5.723159e-05	2.050596e-05	2.474662e-05	
16.613718	2.595512e-05	5.783076e-05	2.093195e-05	2.527667e-05	
16.614719	2.637674e-05	5.839680e-05	2.134038e-05	2.578623e-05	
16.615720	2.677814e-05	5.892764e-05	2.173015e-05	2.627398e-05	
16.616721	2.715818e-05	5.942121e-05	2.210019e-05	2.673859e-05	
16.617722	2.751571e-05	5.987546e-05	2.244940e-05	2.717876e-05	
16.618723	2.784962e-05	6.028833e-05	2.277669e-05	2.759315e-05	
16.619724	2.815874e-05	6.065775e-05	2.308099e-05	2.798046e-05	
16.620724	2.844195e-05	6.098167e-05	2.336120e-05	2.833936e-05	
16.621725	2.869811e-05	6.125802e-05	2.361624e-05	2.866854e-05	
16.622726	2.892609e-05	6.148475e-05	2.384502e-05	2.896667e-05	
16.623727	2.912473e-05	6.165978e-05	2.404645e-05	2.923243e-05	
16.624728	2.929292e-05	6.178108e-05	2.421946e-05	2.946451e-05	
16.625729	2.943012e-05	6.184770e-05	2.436354e-05	2.966230e-05	
16.626730	2.953713e-05	6.186110e-05	2.447941e-05	2.982663e-05	
16.627731	2.961489e-05	6.182299e-05	2.456797e-05	2.995852e-05	
16.628732	2.966434e-05	6.173511e-05	2.463010e-05	3.005901e-05	
16.629733	2.968643e-05	6.159921e-05	2.466666e-05	3.012911e-05	
16.630734	2.968209e-05	6.141700e-05	2.467855e-05	3.016985e-05	
16.631735	2.965229e-05	6.119023e-05	2.466665e-05	3.018226e-05	
16.632736	2.959795e-05	6.092063e-05	2.463183e-05	3.016735e-05	
16.633737	2.952003e-05	6.060993e-05	2.457499e-05	3.012616e-05	
16.634738	2.941947e-05	6.025986e-05	2.449699e-05	3.005971e-05	
16.635739	2.929721e-05	5.987217e-05	2.439872e-05	2.996902e-05	
16.636740	2.915420e-05	5.944858e-05	2.428107e-05	2.985512e-05	
16.637741	2.899138e-05	5.899083e-05	2.414491e-05	2.971903e-05	
16.638742	2.880970e-05	5.850065e-05	2.399113e-05	2.956178e-05	
16.639743	2.861010e-05	5.797978e-05	2.382061e-05	2.938439e-05	
16.640744	2.839352e-05	5.742994e-05	2.363422e-05	2.918789e-05	
16.641745	2.816092e-05	5.685288e-05	2.343285e-05	2.897330e-05	
16.642745	2.791323e-05	5.625032e-05	2.321738e-05	2.874164e-05	
16.643746	2.765139e-05	5.562400e-05	2.298870e-05	2.849394e-05	
16.644747	2.737637e-05	5.497566e-05	2.274767e-05	2.823123e-05	
16.645748	2.708909e-05	5.430702e-05	2.249520e-05	2.795453e-05	
16.646749	2.679050e-05	5.361983e-05	2.223215e-05	2.766486e-05	
16.647750	2.648155e-05	5.291581e-05	2.195940e-05	2.736325e-05	
16.648751	2.616318e-05	5.219670e-05	2.167785e-05	2.705072e-05	
16.649752	2.583633e-05	5.146423e-05	2.138836e-05	2.672830e-05	
16.650753	2.550196e-05	5.072014e-05	2.109183e-05	2.639701e-05	
16.651754	2.516100e-05	4.996616e-05	2.078913e-05	2.605788e-05	
16.652755	2.481440e-05	4.920403e-05	2.048114e-05	2.571193e-05	
16.653756	2.446310e-05	4.843547e-05	2.016875e-05	2.536019e-05	
16.654757	2.410805e-05	4.766222e-05	1.985283e-05	2.500368e-05	
16.655758	2.375020e-05	4.688602e-05	1.953427e-05	2.464342e-05	
16.656759	2.339048e-05	4.610860e-05	1.921395e-05	2.428044e-05	
16.657760	2.302984e-05	4.533169e-05	1.889276e-05	2.391577e-05	
16.658761	2.266922e-05	4.455703e-05	1.857156e-05	2.355042e-05	
16.659762	2.230958e-05	4.378634e-05	1.825125e-05	2.318543e-05	
16.660763	2.195185e-05	4.302138e-05	1.793270e-05	2.282182e-05	
16.661764	2.159698e-05	4.226385e-05	1.761680e-05	2.246061e-05	
16.662765	2.124592e-05	4.151552e-05	1.730442e-05	2.210283e-05	
16.663765	2.089960e-05	4.077809e-05	1.699646e-05	2.174950e-05	
16.664766	2.055897e-05	4.005332e-05	1.669378e-05	2.140165e-05	
16.665767	2.022498e-05	3.934293e-05	1.639727e-05	2.106030e-05	
16.666768	1.989858e-05	3.864865e-05	1.610782e-05	2.072647e-05	
16.667769	1.958070e-05	3.797223e-05	1.582630e-05	2.040119e-05	
16.668770	1.927228e-05	3.731539e-05	1.555359e-05	2.008549e-05	
16.669771	1.897429e-05	3.667987e-05	1.529059e-05	1.978039e-05	
16.670772	1.868765e-05	3.606740e-05	1.503816e-05	1.948692e-05	
16.671773	1.841331e-05	3.547971e-05	1.479718e-05	1.920609e-05	
16.672774	1.815223e-05	3.491855e-05	1.456855e-05	1.893894e-05	
16.673775	1.790533e-05	3.438563e-05	1.435314e-05	1.868648e-05	
16.674776	1.767357e-05	3.388270e-05	1.415183e-05	1.844974e-05	
16.675777	1.745739e-05	3.341060e-05	1.396505e-05	1.822924e-05	
16.676778	1.725635e-05	3.296860e-05	1.379238e-05	1.802460e-05	
16.677779	1.706992e-05	3.255577e-05	1.363335e-05	1.783533e-05	
16.678780	1.689754e-05	3.217122e-05	1.348745e-05	1.766095e-05	
16.679781	1.673868e-05	3.181402e-05	1.335420e-05	1.750096e-05	
16.680782	1.659281e-05	3.148326e-05	1.323309e-05	1.735488e-05	
16.681783	1.645937e-05	3.117804e-05	1.312365e-05	1.722224e-05	
16.682784	1.633783e-05	3.089743e-05	1.302538e-05	1.710254e-05	
16.683785	1.622765e-05	3.064052e-05	1.293777e-05	1.699529e-05	
16.684786	1.612829e-05	3.040640e-05	1.286036e-05	1.690002e-05	
16.685786	1.603921e-05	3.019417e-05	1.279263e-05	1.681623e-05	
16.686787	1.595986e-05	3.000289e-05	1.273409e-05	1.674345e-05	
16.687788	1.588971e-05	2.983167e-05	1.268427e-05	1.668118e-05	
16.688789	1.582822e-05	2.967959e-05	1.264265e-05	1.662895e-05	
16.689790	1.577485e-05	2.954573e-05	1.260876e-05	1.658626e-05	
16.690791	1.572905e-05	2.942919e-05	1.258209e-05	1.655263e-05	
16.691792	1.569029e-05	2.932905e-05	1.256216e-05	1.652757e-05	
16.692793	1.565803e-05	2.924439e-05	1.254847e-05	1.651061e-05	
16.693794	1.563172e-05	2.917431e-05	1.254053e-05	1.650125e-05	
16.694795	1.561082e-05	2.911789e-05	1.253785e-05	1.649901e-05	
16.695796	1.559481e-05	2.907421e-05	1.253993e-05	1.650340e-05	
16.696797	1.558312e-05	2.904237e-05	1.254629e-05	1.651394e-05	
16.697798	1.557523e-05	2.902146e-05	1.255642e-05	1.653014e-05	
16.698799	1.557060e-05	2.901055e-05	1.256985e-05	1.655153e-05	
16.699800	1.556868e-05	2.900874e-05	1.258607e-05	1.657760e-05	
16.700801	1.556893e-05	2.901512e-05	1.260459e-05	1.660788e-05	
16.701802	1.557082e-05	2.902876e-05	1.262493e-05	1.664189e-05	
16.702803	1.557380e-05	2.904876e-05	1.264658e-05	1.667913e-05	
16.703804	1.557733e-05	2.907421e-05	1.266906e-05	1.671912e-05	
16.704805	1.558087e-05	2.910419e-05	1.269187e-05	1.676137e-05	
16.705806	1.558389e-05	2.913778e-05	1.271452e-05	1.680541e-05	
16.706806	1.558584e-05	2.917409e-05	1.273652e-05	1.685074e-05	
16.707807	1.558618e-05	2.921218e-05	1.275737e-05	1.689689e-05	
16.708808	1.558437e-05	2.925116e-05	1.277659e-05	1.694335e-05	
16.709809	1.557987e-05	2.929010e-05	1.279369e-05	1.698966e-05	
16.710810	1.557215e-05	2.932809e-05	1.280815e-05	1.703532e-05	
16.711811	1.556065e-05	2.936423e-05	1.281951e-05	1.707985e-05	
16.712812	1.554484e-05	2.939759e-05	1.282726e-05	1.712276e-05	
16.713813	1.552419e-05	2.942727e-05	1.283091e-05	1.716357e-05	
16.714814	1.549814e-05	2.945235e-05	1.282997e-05	1.720180e-05	
16.715815	1.546616e-05	2.947193e-05	1.282395e-05	1.723694e-05	
16.716816	1.542771e-05	2.948507e-05	1.281235e-05	1.726854e-05	
16.717817	1.538225e-05	2.949088e-05	1.279468e-05	1.729608e-05	
16.718818	1.532924e-05	2.948844e-05	1.277045e-05	1.731910e-05	
16.719819	1.526813e-05	2.947684e-05	1.273916e-05	1.733711e-05	
16.720820	1.519840e-05	2.945516e-05	1.270034e-05	1.734962e-05	
16.721821	1.511949e-05	2.942249e-05	1.265347e-05	1.735614e-05	
16.722822	1.503087e-05	2.937792e-05	1.259807e-05	1.735619e-05	
16.723823	1.493199e-05	2.932054e-05	1.253365e-05	1.734928e-05	
16.724824	1.482233e-05	2.924944e-05	1.245972e-05	1.733494e-05	
16.725825	1.470168e-05	2.916423e-05	1.237609e-05	1.731293e-05	
16.726826	1.457043e-05	2.906538e-05	1.228309e-05	1.728341e-05	
16.727827	1.442898e-05	2.895343e-05	1.218106e-05	1.724658e-05	
16.728827	1.427775e-05	2.882892e-05	1.207037e-05	1.720265e-05	
16.729828	1.411716e-05	2.869238e-05	1.195137e-05	1.715181e-05	
16.730829	1.394763e-05	2.854435e-05	1.182443e-05	1.709426e-05	
16.731830	1.376957e-05	2.838537e-05	1.168990e-05	1.703021e-05	
16.732831	1.358340e-05	2.821598e-05	1.154813e-05	1.695986e-05	
16.733832	1.338955e-05	2.803672e-05	1.139949e-05	1.688340e-05	
16.734833	1.318842e-05	2.784813e-05	1.124434e-05	1.680104e-05	
16.735834	1.298043e-05	2.765075e-05	1.108303e-05	1.671299e-05	
16.736835	1.276601e-05	2.744510e-05	1.091592e-05	1.661943e-05	
16.737836	1.254556e-05	2.723175e-05	1.074336e-05	1.652057e-05	
16.738837	1.231951e-05	2.701121e-05	1.056573e-05	1.641661e-05	
16.739838	1.208828e-05	2.678403e-05	1.038337e-05	1.630775e-05	
16.740839	1.185228e-05	2.655075e-05	1.019665e-05	1.619419e-05	
16.741840	1.161192e-05	2.631191e-05	1.000591e-05	1.607614e-05	
16.742841	1.136764e-05	2.606804e-05	9.811530e-06	1.595379e-05	
16.743842	1.111983e-05	2.581969e-05	9.613853e-06	1.582735e-05	
16.744843	1.086893e-05	2.556739e-05	9.413243e-06	1.569701e-05	
16.745844	1.061535e-05	2.531168e-05	9.210057e-06	1.556298e-05	
16.746845	1.035950e-05	2.505311e-05	9.004653e-06	1.542545e-05	
16.747846	1.010180e-05	2.479220e-05	8.797389e-06	1.528463e-05	
16.748847	9.842681e-06	2.452950e-05	8.588624e-06	1.514072e-05	
16.749847	9.582546e-06	2.426554e-05	8.378715e-06	1.499391e-05	
16.750848	9.321817e-06	2.400087e-05	8.168021e-06	1.484442e-05	
16.751849	9.060910e-06	2.373602e-05	7.956899e-06	1.469244e-05	
16.752850	8.800245e-06	2.347154e-05	7.745709e-06	1.453816e-05	
16.753851	8.540238e-06	2.320795e-05	7.534807e-06	1.438180e-05	
16.754852	8.281306e-06	2.294580e-05	7.324552e-06	1.422355e-05	
16.755853	8.023867e-06	2.268563e-05	7.115303e-06	1.406362e-05	
16.756854	7.768338e-06	2.242798e-05	6.907417e-06	1.390219e-05	
16.757855	7.515138e-06	2.217338e-05	6.701252e-06	1.373949e-05	
16.758856	7.264682e-06	2.192237e-05	6.497167e-06	1.357569e-05	
16.759857	7.017390e-06	2.167549e-05	6.295519e-06	1.341101e-05	
16.760858	6.773677e-06	2.143329e-05	6.096667e-06	1.324565e-05	
16.761859	6.533962e-06	2.119629e-05	5.900969e-06	1.307981e-05	
16.762860	6.298662e-06	2.096504e-05	5.708783e-06	1.291368e-05	
16.763861	6.068195e-06	2.074008e-05	5.520468e-06	1.274748e-05	
16.764862	5.842977e-06	2.052194e-05	5.336380e-06	1.258139e-05	
16.765863	5.623427e-06	2.031117e-05	5.156879e-06	1.241562e-05	
16.766864	5.409961e-06	2.010829e-05	4.982322e-06	1.225037e-05	
16.767865	5.202998e-06	1.991386e-05	4.813068e-06	1.208585e-05	
16.768866	5.002954e-06	1.972840e-05	4.649475e-06	1.192224e-05	
16.769867	4.810248e-06	1.955247e-05	4.491900e-06	1.175976e-05	
16.770867	4.625295e-06	1.938659e-05	4.340702e-06	1.159860e-05	
16.771868	4.448515e-06	1.923130e-05	4.196239e-06	1.143897e-05	
16.772869	4.280324e-06	1.908715e-05	4.058870e-06	1.128106e-05	
16.773870	4.121140e-06	1.895467e-05	3.928952e-06	1.112508e-05	
16.774871	3.971375e-06	1.883439e-05	3.806838e-06	1.097123e-05	
16.775872	3.831199e-06	1.872660e-05	3.692665e-06	1.081963e-05	
16.776873	3.700433e-06	1.863122e-05	3.586254e-06	1.067032e-05	
16.777874	3.578873e-06	1.854815e-05	3.487405e-06	1.052333e-05	
16.778875	3.466314e-06	1.847727e-05	3.395916e-06	1.037869e-05	
16.779876	3.362553e-06	1.841849e-05	3.311588e-06	1.023642e-05	
16.780877	3.267385e-06	1.837170e-05	3.234219e-06	1.009656e-05	
16.781878	3.180605e-06	1.833680e-05	3.163609e-06	9.959131e-06	
16.782879	3.102009e-06	1.831367e-05	3.099556e-06	9.824159e-06	
16.783880	3.031392e-06	1.830222e-05	3.041859e-06	9.691674e-06	
16.784881	2.968551e-06	1.830234e-05	2.990318e-06	9.561704e-06	
16.785882	2.913280e-06	1.831393e-05	2.944732e-06	9.434277e-06	
16.786883	2.865376e-06	1.833687e-05	2.904900e-06	9.309420e-06	
16.787884	2.824634e-06	1.837108e-05	2.870621e-06	9.187161e-06	
16.788885	2.790849e-06	1.841643e-05	2.841694e-06	9.067528e-06	
16.789886	2.763817e-06	1.847283e-05	2.817918e-06	8.950549e-06	
16.790887	2.743334e-06	1.854017e-05	2.799093e-06	8.836252e-06	
16.791888	2.729195e-06	1.861835e-05	2.785017e-06	8.724665e-06	
16.792888	2.721197e-06	1.870726e-05	2.775490e-06	8.615815e-06	
16.793889	2.719133e-06	1.880679e-05	2.770310e-06	8.509730e-06	
16.794890	2.722801e-06	1.891685e-05	2.769277e-06	8.406439e-06	
16.795891	2.731995e-06	1.903733e-05	2.772191e-06	8.305968e-06	
16.796892	2.746511e-06	1.916811e-05	2.778849e-06	8.208346e-06	
16.797893	2.766146e-06	1.930911e-05	2.789052e-06	8.113601e-06	
16.798894	2.790693e-06	1.946020e-05	2.802598e-06	8.021760e-06	
16.799895	2.819950e-06	1.962130e-05	2.819286e-06	7.932852e-06	
16.800896	2.853711e-06	1.979229e-05	2.838916e-06	7.846904e-06	
16.801897	2.891773e-06	1.997306e-05	2.861286e-06	7.763944e-06	
16.802898	2.933930e-06	2.016352e-05	2.886197e-06	7.684000e-06	
16.803899	2.979978e-06	2.036355e-05	2.913446e-06	7.607099e-06	
16.804900	3.029714e-06	2.057306e-05	2.942833e-06	7.533270e-06	
16.805901	3.082932e-06	2.079194e-05	2.974158e-06	7.462541e-06	
16.806902	3.139428e-06	2.102008e-05	3.007218e-06	7.394938e-06	
16.807903	3.198998e-06	2.125738e-05	3.041814e-06	7.330491e-06	
16.808904	3.261437e-06	2.150373e-05	3.077745e-06	7.269227e-06	
16.809905	3.326541e-06	2.175903e-05	3.114809e-06	7.211173e-06	
16.810906	3.394105e-06	2.202317e-05	3.152806e-06	7.156358e-06	
16.811907	3.463925e-06	2.229606e-05	3.191535e-06	7.104810e-06	
16.812908	3.535797e-06	2.257758e-05	3.230795e-06	7.056555e-06	
16.813908	3.609517e-06	2.286763e-05	3.270385e-06	7.011623e-06	
16.814909	3.684879e-06	2.316610e-05	3.310104e-06	6.970041e-06	
16.815910	3.761679e-06	2.347289e-05	3.349751e-06	6.931837e-06	
16.816911	3.839714e-06	2.378790e-05	3.389126e-06	6.897038e-06	
16.817912	3.918778e-06	2.411101e-05	3.428027e-06	6.865673e-06	
16.818913	3.998667e-06	2.444214e-05	3.466254e-06	6.837769e-06	
16.819914	4.079177e-06	2.478116e-05	3.503606e-06	6.813354e-06	
16.820915	4.160104e-06	2.512797e-05	3.539882e-06	6.792457e-06	
16.821916	4.241242e-06	2.548248e-05	3.574881e-06	6.775104e-06	
16.822917	4.322388e-06	2.584457e-05	3.608402e-06	6.761324e-06	
16.823918	4.403337e-06	2.621415e-05	3.640244e-06	6.751144e-06	
16.824919	4.483887e-06	2.659109e-05	3.670210e-06	6.744591e-06	
16.825920	4.563944e-06	2.697512e-05	3.698210e-06	6.741613e-06	
16.826921	4.643545e-06	2.736570e-05	3.724293e-06	6.742064e-06	
16.827922	4.722737e-06	2.776230e-05	3.748517e-06	6.745791e-06	
16.828923	4.801567e-06	2.816438e-05	3.770937e-06	6.752641e-06	
16.829924	4.880080e-06	2.857141e-05	3.791613e-06	6.762460e-06	
16.830925	4.958324e-06	2.898285e-05	3.810599e-06	6.775097e-06	
16.831926	5.036345e-06	2.939817e-05	3.827955e-06	6.790398e-06	
16.832927	5.114190e-06	2.981682e-05	3.843736e-06	6.808210e-06	
16.833928	5.191904e-06	3.023828e-05	3.858000e-06	6.828380e-06	
16.834929	5.269536e-06	3.066200e-05	3.870804e-06	6.850755e-06	
16.835929	5.347130e-06	3.108745e-05	3.882205e-06	6.875183e-06	
16.836930	5.424735e-06	3.151409e-05	3.892260e-06	6.901510e-06	
16.837931	5.502396e-06	3.194138e-05	3.901027e-06	6.929584e-06	
16.838932	5.580159e-06	3.236880e-05	3.908562e-06	6.959251e-06	
16.839933	5.658072e-06	3.279580e-05	3.914923e-06	6.990359e-06	
16.840934	5.736181e-06	3.322184e-05	3.920167e-06	7.022755e-06	
16.841935	5.814533e-06	3.364640e-05	3.924350e-06	7.056285e-06	
16.842936	5.893173e-06	3.406893e-05	3.927531e-06	7.090797e-06	
16.843937	5.972149e-06	3.448889e-05	3.929765e-06	7.126138e-06	
16.844938	6.051508e-06	3.490576e-05	3.931111e-06	7.162155e-06	
16.845939	6.131295e-06	3.531899e-05	3.931626e-06	7.198695e-06	
16.846940	6.211557e-06	3.572805e-05	3.931366e-06	7.235605e-06	
16.847941	6.292341e-06	3.613240e-05	3.930388e-06	7.272732e-06	
16.848942	6.373693e-06	3.653150e-05	3.928750e-06	7.309924e-06	
16.849943	6.455660e-06	3.692483e-05	3.926509e-06	7.347026e-06	
16.850944	6.538288e-06	3.731183e-05	3.923722e-06	7.383887e-06	
16.851945	6.621625e-06	3.769198e-05	3.920446e-06	7.420354e-06	
16.852946	6.705716e-06	3.806474e-05	3.916739e-06	7.456273e-06	
16.853947	6.790608e-06	3.842958e-05	3.912657e-06	7.491491e-06	
16.854948	6.876347e-06	3.878594e-05	3.908257e-06	7.525857e-06	
16.855949	6.962981e-06	3.913331e-05	3.903597e-06	7.559216e-06	
16.856949	7.050555e-06	3.947115e-05	3.898733e-06	7.591415e-06	
16.857950	7.139117e-06	3.979890e-05	3.893724e-06	7.622303e-06	
16.858951	7.228712e-06	4.011605e-05	3.888625e-06	7.651725e-06	
16.859952	7.319388e-06	4.042206e-05	3.883495e-06	7.679529e-06	
16.860953	7.411191e-06	4.071638e-05	3.878390e-06	7.705563e-06	
16.861954	7.504166e-06	4.099848e-05	3.873367e-06	7.729672e-06	
16.862955	7.598362e-06	4.126783e-05	3.868484e-06	7.751705e-06	
16.863956	7.693825e-06	4.152388e-05	3.863797e-06	7.771508e-06	
16.864957	7.790600e-06	4.176611e-05	3.859364e-06	7.788928e-06	
16.865958	7.888735e-06	4.199397e-05	3.855242e-06	7.803812e-06	
16.866959	7.988276e-06	4.220694e-05	3.851487e-06	7.816008e-06	
16.867960	8.089270e-06	4.240446e-05	3.848158e-06	7.825363e-06	
16.868961	8.191763e-06	4.258601e-05	3.845311e-06	7.831722e-06	
16.869962	8.295801e-06	4.275105e-05	3.843004e-06	7.834935e-06	
16.870963	8.401432e-06	4.289904e-05	3.841293e-06	7.834847e-06	
16.871964	8.508702e-06	4.302945e-05	3.840235e-06	7.831307e-06	
16.872965	8.617657e-06	4.314175e-05	3.839889e-06	7.824159e-06	
16.873966	8.728345e-06	4.323538e-05	3.840310e-06	7.813253e-06	
16.874967	8.840808e-06	4.330984e-05	3.841555e-06	7.798440e-06	
16.875968	8.955026e-06	4.336511e-05	3.843668e-06	7.779697e-06	
16.876969	9.070903e-06	4.340172e-05	3.846674e-06	7.757148e-06	
16.877969	9.188342e-06	4.342024e-05	3.850601e-06	7.730918e-06	
16.878970	9.307244e-06	4.342124e-05	3.855474e-06	7.701135e-06	
16.879971	9.427510e-06	4.340528e-05	3.861320e-06	7.667929e-06	
16.880972	9.549042e-06	4.337293e-05	3.868165e-06	7.631426e-06	
16.881973	9.671741e-06	4.332475e-05	3.876034e-06	7.591755e-06	
16.882974	9.795509e-06	4.326132e-05	3.884954e-06	7.549043e-06	
16.883975	9.920248e-06	4.318319e-05	3.894952e-06	7.503418e-06	
16.884976	1.004586e-05	4.309094e-05	3.906053e-06	7.455009e-06	
16.885977	1.017224e-05	4.298512e-05	3.918284e-06	7.403942e-06	
16.886978	1.029930e-05	4.286632e-05	3.931671e-06	7.350347e-06	
16.887979	1.042694e-05	4.273508e-05	3.946239e-06	7.294350e-06	
16.888980	1.055505e-05	4.259198e-05	3.962016e-06	7.236080e-06	
16.889981	1.068354e-05	4.243758e-05	3.979027e-06	7.175664e-06	
16.890982	1.081231e-05	4.227246e-05	3.997299e-06	7.113231e-06	
16.891983	1.094127e-05	4.209717e-05	4.016857e-06	7.048908e-06	
16.892984	1.107031e-05	4.191228e-05	4.037728e-06	6.982824e-06	
16.893985	1.119934e-05	4.171836e-05	4.059938e-06	6.915105e-06	
16.894986	1.132825e-05	4.151597e-05	4.083513e-06	6.845881e-06	
16.895987	1.145695e-05	4.130569e-05	4.108480e-06	6.775278e-06	
16.896988	1.158534e-05	4.108807e-05	4.134864e-06	6.703425e-06	
16.897989	1.171332e-05	4.086368e-05	4.162692e-06	6.630449e-06	
16.898990	1.184080e-05	4.063310e-05	4.191990e-06	6.556479e-06	
16.899990	1.196767e-05	4.039687e-05	4.222784e-06	6.481643e-06	
16.900991	1.209383e-05	4.015558e-05	4.255100e-06	6.406067e-06	
16.901992	1.221920e-05	3.990979e-05	4.288965e-06	6.329881e-06	
16.902993	1.234366e-05	3.966006e-05	4.324404e-06	6.253212e-06	
16.903994	1.246712e-05	3.940695e-05	4.361444e-06	6.176188e-06	
16.904995	1.258949e-05	3.915105e-05	4.400111e-06	6.098936e-06	
16.905996	1.271065e-05	3.889290e-05	4.440432e-06	6.021585e-06	
16.906997	1.283053e-05	3.863309e-05	4.482431e-06	5.944263e-06	
16.907998	1.294901e-05	3.837216e-05	4.526136e-06	5.867097e-06	
16.908999	1.306600e-05	3.811070e-05	4.571573e-06	5.790215e-06	
16.910000	1.318139e-05	3.784926e-05	4.618768e-06	5.713745e-06	
